{
  "AcquisitionMatrixPE": 114,
  "AcquisitionTime": "18:05:3.157500",
  "B0FieldIdentifier": "pilot021phasediff",
  "BaseResolution": 114,
  "DwellTime": 3.6e-06,
  "EchoTime": 0.00691,
  "EchoTime1": 0.00445,
  "EchoTime2": 0.00691,
  "FlipAngle": 55,
  "ImageOrientationPatientDICOM": [
    0.999664,
    0.0022842,
    0.0258221,
    0.00593222,
    0.94952,
    -0.313651
  ],
  "PartialFourier": 1,
  "PhaseEncodingDirection": "j",
  "PhaseEncodingSteps": 114,
  "PixelBandwidth": 1218,
  "ProcedureStepDescription": "RESEARCH Oscar",
  "ProtocolName": "fmap-phasediff__gre",
  "ReceiveCoilActiveElements": "HC1-7",
  "ReconMatrixPE": 114,
  "RepetitionTime": 0.324,
  "SAR": 0.118896,
  "ScanOptions": "PER",
  "SeriesDescription": "fmap-phasediff__gre",
  "SeriesNumber": 14,
  "ShimSetting": [
    8231,
    -5628,
    -6006,
    659,
    -74,
    -216,
    -2,
    -7
  ],
  "SliceThickness": 2,
  "SliceTiming": [
    74.8485, 0, 0, 0, 0, 0, 0, 0, 0, 0, 0, 0, 0, 0, 0, 0, 0, 0, 0, 0, 0, 0, 0, 0, 0, 0, 0, 0, 0, 0, 0,
    0, 0, 0, 0, 0, 0, 0, 0, 0, 0, 0, 0, 0, 0, 0, 0, 0, 0, 0, 0, 0, 0, 0, 0, 0, 0, 0, 0, 0, 0, 0, 0, 0,
    0, 0, 0, 0, 0, 0, 0, 0
  ],
  "SpacingBetweenSlices": 2,
  "TxRefAmp": 247.681,
  "dcmmeta_affine": [
    [-1.9993280172348022, 0.011864439584314823, 0.05000000074505806, 116.0273208618164],
    [-0.004568399861454964, 1.8990399837493896, -0.6269999742507935, -65.46752166748047],
    [0.05164419859647751, 0.6273019909858704, 1.8990000486373901, -83.6521224975586],
    [0.0, 0.0, 0.0, 1.0]
  ],
  "dcmmeta_reorient_transform": [
    [0.0, -1.0, 0.0, 113.0],
    [1.0, 0.0, 0.0, 0.0],
    [0.0, 0.0, -1.0, 71.0],
    [0.0, 0.0, 0.0, 1.0]
  ],
  "dcmmeta_shape": [114, 114, 72],
  "global": {
    "const": {
      "AcquisitionMatrix": [114, 0, 0, 114],
      "AcquisitionNumber": 1,
      "AngioFlag": "N",
      "BeatRejectionFlag": "N",
      "BitsAllocated": 16,
      "BitsStored": 12,
      "BodyPartExamined": "BRAIN",
      "BurnedInAnnotation": "NO",
      "CardiacNumberOfImages": 1,
      "Columns": 114,
      "ConfidentialityCode": "N",
      "ContentQualification": "PRODUCT",
      "ContentTime": "180621",
      "EchoTime": 6.91,
      "EchoTrainLength": 0,
      "FlipAngle": 55.0,
      "HighBit": 11,
      "ImageOrientationPatient": [
        0.999664,
        0.0022842,
        0.0258221,
        0.00593222,
        0.94952,
        -0.313651
      ],
      "ImageType": ["ORIGINAL", "PRIMARY", "P", "DIS2D", "MFSPLIT"],
      "ImagedNucleus": "1H",
      "ImagingFrequency": 123.248147,
      "InPlanePhaseEncodingDirection": "COL",
      "InstanceCreationTime": "180503.157500",
      "LargestImagePixelValue": 4095,
      "LossyImageCompression": "00",
      "MRAcquisitionType": "2D",
      "MagneticFieldStrength": 3.0,
      "Manufacturer": "Siemens Healthineers",
      "ManufacturerModelName": "MAGNETOM Prisma Fit",
      "ModalitiesInStudy": ["MR", "SR"],
      "Modality": "MR",
      "NumberOfAverages": 1.0,
      "NumberOfPhaseEncodingSteps": 114,
      "NumberOfStudyRelatedInstances": 34448,
      "NumberOfTemporalPositions": 1,
      "PercentPhaseFieldOfView": 100.0,
      "PercentSampling": 100.0,
      "PerformedProcedureStepStartTime": "163521.100000",
      "PhotometricInterpretation": "MONOCHROME2",
      "PixelBandwidth": 1218.0,
      "PixelRepresentation": 0,
      "PixelSpacing": [2.0, 2.0],
      "PresentationLUTShape": "IDENTITY",
      "ProtocolName": "fmap-phasediff__gre",
      "ReceiveCoilName": "HeadNeck_64",
      "RepetitionTime": 324.0,
      "RescaleIntercept": -4096.0,
      "RescaleSlope": 2.0,
      "Rows": 114,
      "SAR": 0.11889647802813,
      "SamplesPerPixel": 1,
      "ScanOptions": "PER",
      "ScanningSequence": "GR",
      "SequenceName": "*fm2d2r",
      "SequenceVariant": "SK",
      "SeriesDescription": "fmap-phasediff__gre",
      "SeriesNumber": 14,
      "SeriesTime": "180505",
      "SliceThickness": 2.0,
      "SmallestImagePixelValue": 0,
      "SoftwareVersions": "syngo MR XA30",
      "SpacingBetweenSlices": 2.0,
      "SpecificCharacterSet": "ISO_IR 100",
      "StudyID": "64938be6-2c9b-4a",
      "StudyTime": "163521",
      "TransmitCoilName": "Body"
    },
    "slices": {
      "AcquisitionTime": [
        "180503.157500", "180348.637500", "180503.165000", "180348.645000", "180503.175000",
        "180348.655000", "180503.182500", "180348.662500", "180503.192500", "180348.672500",
        "180503.202500", "180348.682500", "180503.210000", "180348.690000", "180503.220000",
        "180348.700000", "180503.227500", "180348.707500", "180503.237500", "180348.717500",
        "180503.247500", "180348.727500", "180503.255000", "180348.735000", "180503.265000",
        "180348.745000", "180503.272500", "180348.752500", "180503.282500", "180348.762500",
        "180503.292500", "180348.772500", "180503.300000", "180348.780000", "180503.310000",
        "180348.790000", "180503.317500", "180348.797500", "180503.327500", "180348.807500",
        "180503.337500", "180348.817500", "180503.345000", "180348.825000", "180503.355000",
        "180348.835000", "180503.362500", "180348.842500", "180503.372500", "180348.852500",
        "180503.382500", "180348.862500", "180503.390000", "180348.870000", "180503.400000",
        "180348.880000", "180503.407500", "180348.887500", "180503.417500", "180348.897500",
        "180503.427500", "180348.907500", "180503.435000", "180348.915000", "180503.445000",
        "180348.925000", "180503.452500", "180348.932500", "180503.462500", "180348.942500",
        "180503.472500", "180348.952500"
      ],
      "ConversionSourceAttributesSequence": [
        [
          {
            "ReferencedFrameNumber": 1,
            "ReferencedSOPClassUID": "1.2.840.10008.5.1.4.1.1.4.1",
            "ReferencedSOPInstanceUID": "1.3.12.2.1107.5.2.43.67014.2023101218050595794505345"
          }
        ],
        [
          {
            "ReferencedFrameNumber": 2,
            "ReferencedSOPClassUID": "1.2.840.10008.5.1.4.1.1.4.1",
            "ReferencedSOPInstanceUID": "1.3.12.2.1107.5.2.43.67014.2023101218050595794505345"
          }
        ],
        [
          {
            "ReferencedFrameNumber": 3,
            "ReferencedSOPClassUID": "1.2.840.10008.5.1.4.1.1.4.1",
            "ReferencedSOPInstanceUID": "1.3.12.2.1107.5.2.43.67014.2023101218050595794505345"
          }
        ],
        [
          {
            "ReferencedFrameNumber": 4,
            "ReferencedSOPClassUID": "1.2.840.10008.5.1.4.1.1.4.1",
            "ReferencedSOPInstanceUID": "1.3.12.2.1107.5.2.43.67014.2023101218050595794505345"
          }
        ],
        [
          {
            "ReferencedFrameNumber": 5,
            "ReferencedSOPClassUID": "1.2.840.10008.5.1.4.1.1.4.1",
            "ReferencedSOPInstanceUID": "1.3.12.2.1107.5.2.43.67014.2023101218050595794505345"
          }
        ],
        [
          {
            "ReferencedFrameNumber": 6,
            "ReferencedSOPClassUID": "1.2.840.10008.5.1.4.1.1.4.1",
            "ReferencedSOPInstanceUID": "1.3.12.2.1107.5.2.43.67014.2023101218050595794505345"
          }
        ],
        [
          {
            "ReferencedFrameNumber": 7,
            "ReferencedSOPClassUID": "1.2.840.10008.5.1.4.1.1.4.1",
            "ReferencedSOPInstanceUID": "1.3.12.2.1107.5.2.43.67014.2023101218050595794505345"
          }
        ],
        [
          {
            "ReferencedFrameNumber": 8,
            "ReferencedSOPClassUID": "1.2.840.10008.5.1.4.1.1.4.1",
            "ReferencedSOPInstanceUID": "1.3.12.2.1107.5.2.43.67014.2023101218050595794505345"
          }
        ],
        [
          {
            "ReferencedFrameNumber": 9,
            "ReferencedSOPClassUID": "1.2.840.10008.5.1.4.1.1.4.1",
            "ReferencedSOPInstanceUID": "1.3.12.2.1107.5.2.43.67014.2023101218050595794505345"
          }
        ],
        [
          {
            "ReferencedFrameNumber": 10,
            "ReferencedSOPClassUID": "1.2.840.10008.5.1.4.1.1.4.1",
            "ReferencedSOPInstanceUID": "1.3.12.2.1107.5.2.43.67014.2023101218050595794505345"
          }
        ],
        [
          {
            "ReferencedFrameNumber": 11,
            "ReferencedSOPClassUID": "1.2.840.10008.5.1.4.1.1.4.1",
            "ReferencedSOPInstanceUID": "1.3.12.2.1107.5.2.43.67014.2023101218050595794505345"
          }
        ],
        [
          {
            "ReferencedFrameNumber": 12,
            "ReferencedSOPClassUID": "1.2.840.10008.5.1.4.1.1.4.1",
            "ReferencedSOPInstanceUID": "1.3.12.2.1107.5.2.43.67014.2023101218050595794505345"
          }
        ],
        [
          {
            "ReferencedFrameNumber": 13,
            "ReferencedSOPClassUID": "1.2.840.10008.5.1.4.1.1.4.1",
            "ReferencedSOPInstanceUID": "1.3.12.2.1107.5.2.43.67014.2023101218050595794505345"
          }
        ],
        [
          {
            "ReferencedFrameNumber": 14,
            "ReferencedSOPClassUID": "1.2.840.10008.5.1.4.1.1.4.1",
            "ReferencedSOPInstanceUID": "1.3.12.2.1107.5.2.43.67014.2023101218050595794505345"
          }
        ],
        [
          {
            "ReferencedFrameNumber": 15,
            "ReferencedSOPClassUID": "1.2.840.10008.5.1.4.1.1.4.1",
            "ReferencedSOPInstanceUID": "1.3.12.2.1107.5.2.43.67014.2023101218050595794505345"
          }
        ],
        [
          {
            "ReferencedFrameNumber": 16,
            "ReferencedSOPClassUID": "1.2.840.10008.5.1.4.1.1.4.1",
            "ReferencedSOPInstanceUID": "1.3.12.2.1107.5.2.43.67014.2023101218050595794505345"
          }
        ],
        [
          {
            "ReferencedFrameNumber": 17,
            "ReferencedSOPClassUID": "1.2.840.10008.5.1.4.1.1.4.1",
            "ReferencedSOPInstanceUID": "1.3.12.2.1107.5.2.43.67014.2023101218050595794505345"
          }
        ],
        [
          {
            "ReferencedFrameNumber": 18,
            "ReferencedSOPClassUID": "1.2.840.10008.5.1.4.1.1.4.1",
            "ReferencedSOPInstanceUID": "1.3.12.2.1107.5.2.43.67014.2023101218050595794505345"
          }
        ],
        [
          {
            "ReferencedFrameNumber": 19,
            "ReferencedSOPClassUID": "1.2.840.10008.5.1.4.1.1.4.1",
            "ReferencedSOPInstanceUID": "1.3.12.2.1107.5.2.43.67014.2023101218050595794505345"
          }
        ],
        [
          {
            "ReferencedFrameNumber": 20,
            "ReferencedSOPClassUID": "1.2.840.10008.5.1.4.1.1.4.1",
            "ReferencedSOPInstanceUID": "1.3.12.2.1107.5.2.43.67014.2023101218050595794505345"
          }
        ],
        [
          {
            "ReferencedFrameNumber": 21,
            "ReferencedSOPClassUID": "1.2.840.10008.5.1.4.1.1.4.1",
            "ReferencedSOPInstanceUID": "1.3.12.2.1107.5.2.43.67014.2023101218050595794505345"
          }
        ],
        [
          {
            "ReferencedFrameNumber": 22,
            "ReferencedSOPClassUID": "1.2.840.10008.5.1.4.1.1.4.1",
            "ReferencedSOPInstanceUID": "1.3.12.2.1107.5.2.43.67014.2023101218050595794505345"
          }
        ],
        [
          {
            "ReferencedFrameNumber": 23,
            "ReferencedSOPClassUID": "1.2.840.10008.5.1.4.1.1.4.1",
            "ReferencedSOPInstanceUID": "1.3.12.2.1107.5.2.43.67014.2023101218050595794505345"
          }
        ],
        [
          {
            "ReferencedFrameNumber": 24,
            "ReferencedSOPClassUID": "1.2.840.10008.5.1.4.1.1.4.1",
            "ReferencedSOPInstanceUID": "1.3.12.2.1107.5.2.43.67014.2023101218050595794505345"
          }
        ],
        [
          {
            "ReferencedFrameNumber": 25,
            "ReferencedSOPClassUID": "1.2.840.10008.5.1.4.1.1.4.1",
            "ReferencedSOPInstanceUID": "1.3.12.2.1107.5.2.43.67014.2023101218050595794505345"
          }
        ],
        [
          {
            "ReferencedFrameNumber": 26,
            "ReferencedSOPClassUID": "1.2.840.10008.5.1.4.1.1.4.1",
            "ReferencedSOPInstanceUID": "1.3.12.2.1107.5.2.43.67014.2023101218050595794505345"
          }
        ],
        [
          {
            "ReferencedFrameNumber": 27,
            "ReferencedSOPClassUID": "1.2.840.10008.5.1.4.1.1.4.1",
            "ReferencedSOPInstanceUID": "1.3.12.2.1107.5.2.43.67014.2023101218050595794505345"
          }
        ],
        [
          {
            "ReferencedFrameNumber": 28,
            "ReferencedSOPClassUID": "1.2.840.10008.5.1.4.1.1.4.1",
            "ReferencedSOPInstanceUID": "1.3.12.2.1107.5.2.43.67014.2023101218050595794505345"
          }
        ],
        [
          {
            "ReferencedFrameNumber": 29,
            "ReferencedSOPClassUID": "1.2.840.10008.5.1.4.1.1.4.1",
            "ReferencedSOPInstanceUID": "1.3.12.2.1107.5.2.43.67014.2023101218050595794505345"
          }
        ],
        [
          {
            "ReferencedFrameNumber": 30,
            "ReferencedSOPClassUID": "1.2.840.10008.5.1.4.1.1.4.1",
            "ReferencedSOPInstanceUID": "1.3.12.2.1107.5.2.43.67014.2023101218050595794505345"
          }
        ],
        [
          {
            "ReferencedFrameNumber": 31,
            "ReferencedSOPClassUID": "1.2.840.10008.5.1.4.1.1.4.1",
            "ReferencedSOPInstanceUID": "1.3.12.2.1107.5.2.43.67014.2023101218050595794505345"
          }
        ],
        [
          {
            "ReferencedFrameNumber": 32,
            "ReferencedSOPClassUID": "1.2.840.10008.5.1.4.1.1.4.1",
            "ReferencedSOPInstanceUID": "1.3.12.2.1107.5.2.43.67014.2023101218050595794505345"
          }
        ],
        [
          {
            "ReferencedFrameNumber": 33,
            "ReferencedSOPClassUID": "1.2.840.10008.5.1.4.1.1.4.1",
            "ReferencedSOPInstanceUID": "1.3.12.2.1107.5.2.43.67014.2023101218050595794505345"
          }
        ],
        [
          {
            "ReferencedFrameNumber": 34,
            "ReferencedSOPClassUID": "1.2.840.10008.5.1.4.1.1.4.1",
            "ReferencedSOPInstanceUID": "1.3.12.2.1107.5.2.43.67014.2023101218050595794505345"
          }
        ],
        [
          {
            "ReferencedFrameNumber": 35,
            "ReferencedSOPClassUID": "1.2.840.10008.5.1.4.1.1.4.1",
            "ReferencedSOPInstanceUID": "1.3.12.2.1107.5.2.43.67014.2023101218050595794505345"
          }
        ],
        [
          {
            "ReferencedFrameNumber": 36,
            "ReferencedSOPClassUID": "1.2.840.10008.5.1.4.1.1.4.1",
            "ReferencedSOPInstanceUID": "1.3.12.2.1107.5.2.43.67014.2023101218050595794505345"
          }
        ],
        [
          {
            "ReferencedFrameNumber": 37,
            "ReferencedSOPClassUID": "1.2.840.10008.5.1.4.1.1.4.1",
            "ReferencedSOPInstanceUID": "1.3.12.2.1107.5.2.43.67014.2023101218050595794505345"
          }
        ],
        [
          {
            "ReferencedFrameNumber": 38,
            "ReferencedSOPClassUID": "1.2.840.10008.5.1.4.1.1.4.1",
            "ReferencedSOPInstanceUID": "1.3.12.2.1107.5.2.43.67014.2023101218050595794505345"
          }
        ],
        [
          {
            "ReferencedFrameNumber": 39,
            "ReferencedSOPClassUID": "1.2.840.10008.5.1.4.1.1.4.1",
            "ReferencedSOPInstanceUID": "1.3.12.2.1107.5.2.43.67014.2023101218050595794505345"
          }
        ],
        [
          {
            "ReferencedFrameNumber": 40,
            "ReferencedSOPClassUID": "1.2.840.10008.5.1.4.1.1.4.1",
            "ReferencedSOPInstanceUID": "1.3.12.2.1107.5.2.43.67014.2023101218050595794505345"
          }
        ],
        [
          {
            "ReferencedFrameNumber": 41,
            "ReferencedSOPClassUID": "1.2.840.10008.5.1.4.1.1.4.1",
            "ReferencedSOPInstanceUID": "1.3.12.2.1107.5.2.43.67014.2023101218050595794505345"
          }
        ],
        [
          {
            "ReferencedFrameNumber": 42,
            "ReferencedSOPClassUID": "1.2.840.10008.5.1.4.1.1.4.1",
            "ReferencedSOPInstanceUID": "1.3.12.2.1107.5.2.43.67014.2023101218050595794505345"
          }
        ],
        [
          {
            "ReferencedFrameNumber": 43,
            "ReferencedSOPClassUID": "1.2.840.10008.5.1.4.1.1.4.1",
            "ReferencedSOPInstanceUID": "1.3.12.2.1107.5.2.43.67014.2023101218050595794505345"
          }
        ],
        [
          {
            "ReferencedFrameNumber": 44,
            "ReferencedSOPClassUID": "1.2.840.10008.5.1.4.1.1.4.1",
            "ReferencedSOPInstanceUID": "1.3.12.2.1107.5.2.43.67014.2023101218050595794505345"
          }
        ],
        [
          {
            "ReferencedFrameNumber": 45,
            "ReferencedSOPClassUID": "1.2.840.10008.5.1.4.1.1.4.1",
            "ReferencedSOPInstanceUID": "1.3.12.2.1107.5.2.43.67014.2023101218050595794505345"
          }
        ],
        [
          {
            "ReferencedFrameNumber": 46,
            "ReferencedSOPClassUID": "1.2.840.10008.5.1.4.1.1.4.1",
            "ReferencedSOPInstanceUID": "1.3.12.2.1107.5.2.43.67014.2023101218050595794505345"
          }
        ],
        [
          {
            "ReferencedFrameNumber": 47,
            "ReferencedSOPClassUID": "1.2.840.10008.5.1.4.1.1.4.1",
            "ReferencedSOPInstanceUID": "1.3.12.2.1107.5.2.43.67014.2023101218050595794505345"
          }
        ],
        [
          {
            "ReferencedFrameNumber": 48,
            "ReferencedSOPClassUID": "1.2.840.10008.5.1.4.1.1.4.1",
            "ReferencedSOPInstanceUID": "1.3.12.2.1107.5.2.43.67014.2023101218050595794505345"
          }
        ],
        [
          {
            "ReferencedFrameNumber": 49,
            "ReferencedSOPClassUID": "1.2.840.10008.5.1.4.1.1.4.1",
            "ReferencedSOPInstanceUID": "1.3.12.2.1107.5.2.43.67014.2023101218050595794505345"
          }
        ],
        [
          {
            "ReferencedFrameNumber": 50,
            "ReferencedSOPClassUID": "1.2.840.10008.5.1.4.1.1.4.1",
            "ReferencedSOPInstanceUID": "1.3.12.2.1107.5.2.43.67014.2023101218050595794505345"
          }
        ],
        [
          {
            "ReferencedFrameNumber": 51,
            "ReferencedSOPClassUID": "1.2.840.10008.5.1.4.1.1.4.1",
            "ReferencedSOPInstanceUID": "1.3.12.2.1107.5.2.43.67014.2023101218050595794505345"
          }
        ],
        [
          {
            "ReferencedFrameNumber": 52,
            "ReferencedSOPClassUID": "1.2.840.10008.5.1.4.1.1.4.1",
            "ReferencedSOPInstanceUID": "1.3.12.2.1107.5.2.43.67014.2023101218050595794505345"
          }
        ],
        [
          {
            "ReferencedFrameNumber": 53,
            "ReferencedSOPClassUID": "1.2.840.10008.5.1.4.1.1.4.1",
            "ReferencedSOPInstanceUID": "1.3.12.2.1107.5.2.43.67014.2023101218050595794505345"
          }
        ],
        [
          {
            "ReferencedFrameNumber": 54,
            "ReferencedSOPClassUID": "1.2.840.10008.5.1.4.1.1.4.1",
            "ReferencedSOPInstanceUID": "1.3.12.2.1107.5.2.43.67014.2023101218050595794505345"
          }
        ],
        [
          {
            "ReferencedFrameNumber": 55,
            "ReferencedSOPClassUID": "1.2.840.10008.5.1.4.1.1.4.1",
            "ReferencedSOPInstanceUID": "1.3.12.2.1107.5.2.43.67014.2023101218050595794505345"
          }
        ],
        [
          {
            "ReferencedFrameNumber": 56,
            "ReferencedSOPClassUID": "1.2.840.10008.5.1.4.1.1.4.1",
            "ReferencedSOPInstanceUID": "1.3.12.2.1107.5.2.43.67014.2023101218050595794505345"
          }
        ],
        [
          {
            "ReferencedFrameNumber": 57,
            "ReferencedSOPClassUID": "1.2.840.10008.5.1.4.1.1.4.1",
            "ReferencedSOPInstanceUID": "1.3.12.2.1107.5.2.43.67014.2023101218050595794505345"
          }
        ],
        [
          {
            "ReferencedFrameNumber": 58,
            "ReferencedSOPClassUID": "1.2.840.10008.5.1.4.1.1.4.1",
            "ReferencedSOPInstanceUID": "1.3.12.2.1107.5.2.43.67014.2023101218050595794505345"
          }
        ],
        [
          {
            "ReferencedFrameNumber": 59,
            "ReferencedSOPClassUID": "1.2.840.10008.5.1.4.1.1.4.1",
            "ReferencedSOPInstanceUID": "1.3.12.2.1107.5.2.43.67014.2023101218050595794505345"
          }
        ],
        [
          {
            "ReferencedFrameNumber": 60,
            "ReferencedSOPClassUID": "1.2.840.10008.5.1.4.1.1.4.1",
            "ReferencedSOPInstanceUID": "1.3.12.2.1107.5.2.43.67014.2023101218050595794505345"
          }
        ],
        [
          {
            "ReferencedFrameNumber": 61,
            "ReferencedSOPClassUID": "1.2.840.10008.5.1.4.1.1.4.1",
            "ReferencedSOPInstanceUID": "1.3.12.2.1107.5.2.43.67014.2023101218050595794505345"
          }
        ],
        [
          {
            "ReferencedFrameNumber": 62,
            "ReferencedSOPClassUID": "1.2.840.10008.5.1.4.1.1.4.1",
            "ReferencedSOPInstanceUID": "1.3.12.2.1107.5.2.43.67014.2023101218050595794505345"
          }
        ],
        [
          {
            "ReferencedFrameNumber": 63,
            "ReferencedSOPClassUID": "1.2.840.10008.5.1.4.1.1.4.1",
            "ReferencedSOPInstanceUID": "1.3.12.2.1107.5.2.43.67014.2023101218050595794505345"
          }
        ],
        [
          {
            "ReferencedFrameNumber": 64,
            "ReferencedSOPClassUID": "1.2.840.10008.5.1.4.1.1.4.1",
            "ReferencedSOPInstanceUID": "1.3.12.2.1107.5.2.43.67014.2023101218050595794505345"
          }
        ],
        [
          {
            "ReferencedFrameNumber": 65,
            "ReferencedSOPClassUID": "1.2.840.10008.5.1.4.1.1.4.1",
            "ReferencedSOPInstanceUID": "1.3.12.2.1107.5.2.43.67014.2023101218050595794505345"
          }
        ],
        [
          {
            "ReferencedFrameNumber": 66,
            "ReferencedSOPClassUID": "1.2.840.10008.5.1.4.1.1.4.1",
            "ReferencedSOPInstanceUID": "1.3.12.2.1107.5.2.43.67014.2023101218050595794505345"
          }
        ],
        [
          {
            "ReferencedFrameNumber": 67,
            "ReferencedSOPClassUID": "1.2.840.10008.5.1.4.1.1.4.1",
            "ReferencedSOPInstanceUID": "1.3.12.2.1107.5.2.43.67014.2023101218050595794505345"
          }
        ],
        [
          {
            "ReferencedFrameNumber": 68,
            "ReferencedSOPClassUID": "1.2.840.10008.5.1.4.1.1.4.1",
            "ReferencedSOPInstanceUID": "1.3.12.2.1107.5.2.43.67014.2023101218050595794505345"
          }
        ],
        [
          {
            "ReferencedFrameNumber": 69,
            "ReferencedSOPClassUID": "1.2.840.10008.5.1.4.1.1.4.1",
            "ReferencedSOPInstanceUID": "1.3.12.2.1107.5.2.43.67014.2023101218050595794505345"
          }
        ],
        [
          {
            "ReferencedFrameNumber": 70,
            "ReferencedSOPClassUID": "1.2.840.10008.5.1.4.1.1.4.1",
            "ReferencedSOPInstanceUID": "1.3.12.2.1107.5.2.43.67014.2023101218050595794505345"
          }
        ],
        [
          {
            "ReferencedFrameNumber": 71,
            "ReferencedSOPClassUID": "1.2.840.10008.5.1.4.1.1.4.1",
            "ReferencedSOPInstanceUID": "1.3.12.2.1107.5.2.43.67014.2023101218050595794505345"
          }
        ],
        [
          {
            "ReferencedFrameNumber": 72,
            "ReferencedSOPClassUID": "1.2.840.10008.5.1.4.1.1.4.1",
            "ReferencedSOPInstanceUID": "1.3.12.2.1107.5.2.43.67014.2023101218050595794505345"
          }
        ]
      ],
      "ImagePositionPatient": [
        [-117.335, -149.152, -12.7229],
        [-117.385, -148.525, -10.8245],
        [-117.436, -147.897, -8.92614],
        [-117.486, -147.27, -7.02777],
        [-117.537, -146.643, -5.1294],
        [-117.587, -146.015, -3.23102],
        [-117.638, -145.388, -1.33265],
        [-117.688, -144.76, 0.565726],
        [-117.739, -144.133, 2.4641],
        [-117.789, -143.506, 4.36248],
        [-117.839, -142.878, 6.26085],
        [-117.89, -142.251, 8.15922],
        [-117.94, -141.623, 10.0576],
        [-117.991, -140.996, 11.956],
        [-118.041, -140.369, 13.8543],
        [-118.092, -139.741, 15.7527],
        [-118.142, -139.114, 17.6511],
        [-118.193, -138.486, 19.5495],
        [-118.243, -137.859, 21.4478],
        [-118.294, -137.232, 23.3462],
        [-118.344, -136.604, 25.2446],
        [-118.395, -135.977, 27.143],
        [-118.445, -135.349, 29.0413],
        [-118.496, -134.722, 30.9397],
        [-118.546, -134.095, 32.8381],
        [-118.597, -133.467, 34.7365],
        [-118.647, -132.84, 36.6348],
        [-118.697, -132.212, 38.5332],
        [-118.748, -131.585, 40.4316],
        [-118.798, -130.958, 42.33],
        [-118.849, -130.33, 44.2283],
        [-118.899, -129.703, 46.1267],
        [-118.95, -129.075, 48.0251],
        [-119.0, -128.448, 49.9235],
        [-119.051, -127.821, 51.8218],
        [-119.101, -127.193, 53.7202],
        [-119.152, -126.566, 55.6186],
        [-119.202, -125.938, 57.5169],
        [-119.253, -125.311, 59.4153],
        [-119.303, -124.684, 61.3137],
        [-119.354, -124.056, 63.2121],
        [-119.404, -123.429, 65.1104],
        [-119.455, -122.802, 67.0088],
        [-119.505, -122.174, 68.9072],
        [-119.555, -121.547, 70.8056],
        [-119.606, -120.919, 72.7039],
        [-119.656, -120.292, 74.6023],
        [-119.707, -119.665, 76.5007],
        [-119.757, -119.037, 78.3991],
        [-119.808, -118.41, 80.2974],
        [-119.858, -117.782, 82.1958],
        [-119.909, -117.155, 84.0942],
        [-119.959, -116.528, 85.9926],
        [-120.01, -115.9, 87.8909],
        [-120.06, -115.273, 89.7893],
        [-120.111, -114.645, 91.6877],
        [-120.161, -114.018, 93.5861],
        [-120.212, -113.391, 95.4844],
        [-120.262, -112.763, 97.3828],
        [-120.312, -112.136, 99.2812],
        [-120.363, -111.508, 101.18],
        [-120.413, -110.881, 103.078],
        [-120.464, -110.254, 104.976],
        [-120.514, -109.626, 106.875],
        [-120.565, -108.999, 108.773],
        [-120.615, -108.371, 110.671],
        [-120.666, -107.744, 112.57],
        [-120.716, -107.117, 114.468],
        [-120.767, -106.489, 116.367],
        [-120.817, -105.862, 118.265],
        [-120.868, -105.234, 120.163],
        [-120.918, -104.607, 122.062]
      ],
      "InstanceNumber": [
        1, 2, 3, 4, 5, 6, 7, 8, 9, 10, 11, 12, 13, 14, 15, 16, 17, 18, 19, 20, 21, 22, 23, 24, 25, 26, 27,
        28, 29, 30, 31, 32, 33, 34, 35, 36, 37, 38, 39, 40, 41, 42, 43, 44, 45, 46, 47, 48, 49, 50, 51, 52,
        53, 54, 55, 56, 57, 58, 59, 60, 61, 62, 63, 64, 65, 66, 67, 68, 69, 70, 71, 72
      ],
      "RelatedSeriesSequence": [
        [
          {
            "PurposeOfReferenceCodeSequence": [
              {
                "CodeMeaning": "Alternate SOP Class instance",
                "CodeValue": "121326",
                "CodingSchemeDesignator": "DCM"
              }
            ],
            "ReferencedImageSequence": [
              {
                "ReferencedFrameNumber": 1,
                "ReferencedSOPClassUID": "1.2.840.10008.5.1.4.1.1.4.1",
                "ReferencedSOPInstanceUID": "1.3.12.2.1107.5.2.43.67014.2023101218050595794505345"
              }
            ],
            "SeriesInstanceUID": "1.3.12.2.1107.5.2.43.67014.2023101218034635478905161.0.0.0",
            "StudyInstanceUID": "1.3.12.2.1107.5.2.43.67014.30000023101216313506500000005"
          }
        ],
        [
          {
            "PurposeOfReferenceCodeSequence": [
              {
                "CodeMeaning": "Alternate SOP Class instance",
                "CodeValue": "121326",
                "CodingSchemeDesignator": "DCM"
              }
            ],
            "ReferencedImageSequence": [
              {
                "ReferencedFrameNumber": 2,
                "ReferencedSOPClassUID": "1.2.840.10008.5.1.4.1.1.4.1",
                "ReferencedSOPInstanceUID": "1.3.12.2.1107.5.2.43.67014.2023101218050595794505345"
              }
            ],
            "SeriesInstanceUID": "1.3.12.2.1107.5.2.43.67014.2023101218034635478905161.0.0.0",
            "StudyInstanceUID": "1.3.12.2.1107.5.2.43.67014.30000023101216313506500000005"
          }
        ],
        [
          {
            "PurposeOfReferenceCodeSequence": [
              {
                "CodeMeaning": "Alternate SOP Class instance",
                "CodeValue": "121326",
                "CodingSchemeDesignator": "DCM"
              }
            ],
            "ReferencedImageSequence": [
              {
                "ReferencedFrameNumber": 3,
                "ReferencedSOPClassUID": "1.2.840.10008.5.1.4.1.1.4.1",
                "ReferencedSOPInstanceUID": "1.3.12.2.1107.5.2.43.67014.2023101218050595794505345"
              }
            ],
            "SeriesInstanceUID": "1.3.12.2.1107.5.2.43.67014.2023101218034635478905161.0.0.0",
            "StudyInstanceUID": "1.3.12.2.1107.5.2.43.67014.30000023101216313506500000005"
          }
        ],
        [
          {
            "PurposeOfReferenceCodeSequence": [
              {
                "CodeMeaning": "Alternate SOP Class instance",
                "CodeValue": "121326",
                "CodingSchemeDesignator": "DCM"
              }
            ],
            "ReferencedImageSequence": [
              {
                "ReferencedFrameNumber": 4,
                "ReferencedSOPClassUID": "1.2.840.10008.5.1.4.1.1.4.1",
                "ReferencedSOPInstanceUID": "1.3.12.2.1107.5.2.43.67014.2023101218050595794505345"
              }
            ],
            "SeriesInstanceUID": "1.3.12.2.1107.5.2.43.67014.2023101218034635478905161.0.0.0",
            "StudyInstanceUID": "1.3.12.2.1107.5.2.43.67014.30000023101216313506500000005"
          }
        ],
        [
          {
            "PurposeOfReferenceCodeSequence": [
              {
