{
  "AcquisitionMatrixPE": 146,
  "AcquisitionTime": "18:07:18.905000",
  "B0FieldSource": ["pilot020pepolarb0", "pilot020phasediff"],
  "BandwidthPerPixelPhaseEncode": 19.569,
  "BaseResolution": 146,
  "DerivedVendorReportedEchoSpacing": 0.000700017,
  "DwellTime": 2.1e-06,
  "EchoTime": 0.098,
  "EchoTrainLength": 64,
  "EffectiveEchoSpacing": 0.000350008,
  "ImageOrientationPatientDICOM": [
    0.998972,
    0.0313919,
    0.0326963,
    -0.0286018,
    0.996175,
    -0.0825621
  ],
  "PhaseEncodingSteps": 146,
  "PixelBandwidth": 1631,
  "ProtocolName": "dwi-dwi_acq-highres_dir-PA__trigger_monopolar",
  "PulseSequenceDetails": "%CustomerSeq%\\ep2d_diff_trigg",
  "ReceiveCoilActiveElements": "HC1-7",
  "ReconMatrixPE": 146,
  "RefLinesPE": 54,
  "RepetitionTime": 7,
  "SAR": 0.172128,
  "SequenceName": "ep_b0",
  "SeriesDescription": "dwi-dwi_acq-highres_dir-PA__trigger_monopolar",
  "SeriesNumber": 12,
  "ShimSetting": [
    8231,
    -5631,
    -6044,
    606,
    -47,
    -362,
    14,
    0
  ],
  "SliceThickness": 1.6,
  "SliceTiming": [
    0, 6.145, 0.14, 6.285, 0.28, 6.425, 0.42, 6.5625, 0.56, 6.7025, 0.7, 6.8425, 0.8375, 6.9825, 0.9775,
    7.1225, 1.1175, 7.2625, 1.2575, 7.4025, 1.3975, 7.54, 1.5375, 7.68, 1.6775, 7.82, 1.815, 7.96,
    1.955, 8.1, 2.095, 8.24, 2.235, 8.38, 2.375, 8.5175, 2.515, 8.6575, 2.655, 8.7975, 2.7925, 8.9375,
    2.9325, 9.0775, 3.0725, 9.2175, 3.2125, 9.3575, 3.3525, 9.495, 3.4925, 9.635, 3.6325, 9.775, 3.77,
    9.915, 3.91, 10.055, 4.05, 10.195, 4.19, 10.335, 4.33, 10.4725, 4.47, 10.6125, 4.6075, 10.7525,
    4.7475, 10.8925, 4.8875, 11.0325, 5.0275, 11.1725, 5.1675, 11.3125, 5.3075, 11.45, 5.4475, 11.59,
    5.585, 11.73, 5.725, 11.87, 5.865, 12.01, 6.005
  ],
  "SpacingBetweenSlices": 1.6,
  "TotalReadoutTime": 0.0507512,
  "TxRefAmp": 247.631,
  "dcmmeta_affine": [
    [-1.6353071928024292, -0.04682086035609245, 0.0560000017285347, 120.50602722167969],
    [-0.051388226449489594, 1.6307284832000732, -0.13099999725818634, -92.5056381225586],
    [0.05352351441979408, 0.13515333831310272, 1.5937000513076782, -71.39403533935547],
    [0.0, 0.0, 0.0, 1.0]
  ],
  "dcmmeta_reorient_transform": [
    [0.0, -1.0, 0.0, 145.0],
    [1.0, 0.0, 0.0, 0.0],
    [0.0, 0.0, -1.0, 86.0],
    [0.0, 0.0, 0.0, 1.0]
  ],
  "dcmmeta_shape": [146, 146, 87, 29],
  "global": {
    "const": {
      "AcquisitionMatrix": [146, 0, 0, 146],
      "AngioFlag": "N",
      "BeatRejectionFlag": "N",
      "BitsAllocated": 16,
      "BitsStored": 12,
      "BodyPartExamined": "BRAIN",
      "BurnedInAnnotation": "NO",
      "CardiacNumberOfImages": 1,
      "Columns": 146,
      "ConfidentialityCode": "N",
      "ContentQualification": "RESEARCH",
      "EchoTime": 98.0,
      "EchoTrainLength": 64,
      "FlipAngle": 90.0,
      "HighBit": 11,
      "ImageOrientationPatient": [
        0.998972,
        0.0313919,
        0.0326963,
        -0.0286018,
        0.996175,
        -0.0825621
      ],
      "ImageType": [
        "ORIGINAL",
        "PRIMARY",
        "DIFFUSION",
        "NONE",
        "ND",
        "MFSPLIT"
      ],
      "ImagedNucleus": "1H",
      "ImagingFrequency": 123.248107,
      "InPlanePhaseEncodingDirection": "COL",
      "LossyImageCompression": "00",
      "MRAcquisitionType": "2D",
      "MagneticFieldStrength": 3.0,
      "Manufacturer": "Siemens Healthineers",
      "ManufacturerModelName": "MAGNETOM Prisma Fit",
      "ModalitiesInStudy": ["MR", "SR"],
      "Modality": "MR",
      "NumberOfAverages": 1.0,
      "NumberOfPhaseEncodingSteps": 146,
      "NumberOfStudyRelatedInstances": 32133,
      "NumberOfTemporalPositions": 280,
      "PercentPhaseFieldOfView": 100.0,
      "PercentSampling": 100.0,
      "PerformedProcedureStepStartTime": "171829.900000",
      "PhotometricInterpretation": "MONOCHROME2",
      "PixelBandwidth": 1631.0,
      "PixelRepresentation": 0,
      "PixelSpacing": [1.63699, 1.63699],
      "PresentationLUTShape": "IDENTITY",
      "ProtocolName": "dwi-dwi_acq-highres_dir-PA__trigger_monopolar",
      "ReceiveCoilName": "HeadNeck_64",
      "RepetitionTime": 7000.0,
      "RescaleIntercept": 0.0,
      "RescaleSlope": 1.0,
      "Rows": 146,
      "SAR": 0.17212809314683,
      "SamplesPerPixel": 1,
      "ScanOptions": ["PFP", "FS", "PER"],
      "ScanningSequence": ["GR", "EP"],
      "SequenceVariant": "SK",
      "SeriesDescription": "dwi-dwi_acq-highres_dir-PA__trigger_monopolar",
      "SeriesNumber": 12,
      "SeriesTime": "180726",
      "SliceThickness": 1.6,
      "SmallestImagePixelValue": 0,
      "SoftwareVersions": "syngo MR XA30",
      "SpacingBetweenSlices": 1.6,
      "SpecificCharacterSet": "ISO_IR 100",
      "StudyID": "7f552491-f0ae-4c",
      "StudyTime": "171829",
      "TransmitCoilName": "Body"
    },
    "slices": {
      "AcquisitionTime": [
        "180718.905000", "180722.517500", "180719.147500", "180722.757500", "180719.387500",
        "180722.997500", "180719.627500", "180723.237500", "180719.870000", "180723.480000",
        "180720.110000", "180723.720000", "180720.350000", "180723.960000", "180720.590000",
        "180724.200000", "180720.832500", "180724.442500", "180721.072500", "180724.682500",
        "180721.312500", "180724.922500", "180721.552500", "180725.165000", "180721.795000",
        "180725.405000", "180722.035000", "180725.645000", "180722.275000", "180718.905000",
        "180722.517500", "180719.147500", "180722.757500", "180719.387500", "180722.997500",
        "180719.627500", "180723.237500", "180719.870000", "180723.480000", "180720.110000",
        "180723.720000", "180720.350000", "180723.960000", "180720.590000", "180724.200000",
        "180720.832500", "180724.442500", "180721.072500", "180724.682500", "180721.312500",
        "180724.922500", "180721.552500", "180725.165000", "180721.795000", "180725.405000",
        "180722.035000", "180725.645000", "180722.275000", "180718.905000", "180722.517500",
        "180719.147500", "180722.757500", "180719.387500", "180722.997500", "180719.627500",
        "180723.237500", "180719.870000", "180723.480000", "180720.110000", "180723.720000",
        "180720.350000", "180723.960000", "180720.590000", "180724.200000", "180720.832500",
        "180724.442500", "180721.072500", "180724.682500", "180721.312500", "180724.922500",
        "180721.552500", "180725.165000", "180721.795000", "180725.405000", "180722.035000",
        "180725.645000", "180722.275000", "180725.905000", "180729.517500", "180726.147500",
        "180729.757500", "180726.387500", "180729.997500", "180726.627500", "180730.237500",
        "180726.870000", "180730.480000", "180727.110000", "180730.720000", "180727.350000",
        "180730.960000", "180727.590000", "180731.200000", "180727.832500", "180731.442500",
        "180728.072500", "180731.682500", "180728.312500", "180731.922500", "180728.552500",
        "180732.165000", "180728.795000", "180732.405000", "180729.035000", "180732.645000",
        "180729.275000", "180725.905000", "180729.517500", "180726.147500", "180729.757500",
        "180726.387500", "180729.997500", "180726.627500", "180730.237500", "180726.870000",
        "180730.480000", "180727.110000", "180730.720000", "180727.350000", "180730.960000",
        "180727.590000", "180731.200000", "180727.832500", "180731.442500", "180728.072500",
        "180731.682500", "180728.312500", "180731.922500", "180728.552500", "180732.165000",
        "180728.795000", "180732.405000", "180729.035000", "180732.645000", "180729.275000",
        "180725.905000", "180729.517500", "180726.147500", "180729.757500", "180726.387500",
        "180729.997500", "180726.627500", "180730.237500", "180726.870000", "180730.480000",
        "180727.110000", "180730.720000", "180727.350000", "180730.960000", "180727.590000",
        "180731.200000", "180727.832500", "180731.442500", "180728.072500", "180731.682500",
        "180728.312500", "180731.922500", "180728.552500", "180732.165000", "180728.795000",
        "180732.405000", "180729.035000", "180732.645000", "180729.275000", "180732.905000",
        "180736.517500", "180733.147500", "180736.757500", "180733.387500", "180736.997500",
        "180733.627500", "180737.237500", "180733.870000", "180737.480000", "180734.110000",
        "180737.720000", "180734.350000", "180737.960000", "180734.590000", "180738.200000",
        "180734.832500", "180738.442500", "180735.072500", "180738.682500", "180735.312500",
        "180738.922500", "180735.552500", "180739.165000", "180735.795000", "180739.405000",
        "180736.035000", "180739.645000", "180736.275000", "180732.905000", "180736.517500",
        "180733.147500", "180736.757500", "180733.387500", "180736.997500", "180733.627500",
        "180737.237500", "180733.870000", "180737.480000", "180734.110000", "180737.720000",
        "180734.350000", "180737.960000", "180734.590000", "180738.200000", "180734.832500",
        "180738.442500", "180735.072500", "180738.682500", "180735.312500", "180738.922500",
        "180735.552500", "180739.165000", "180735.795000", "180739.405000", "180736.035000",
        "180739.645000", "180736.275000", "180732.905000", "180736.517500", "180733.147500",
        "180736.757500", "180733.387500", "180736.997500", "180733.627500", "180737.237500",
        "180733.870000", "180737.480000", "180734.110000", "180737.720000", "180734.350000",
        "180737.960000", "180734.590000", "180738.200000", "180734.832500", "180738.442500",
        "180735.072500", "180738.682500", "180735.312500", "180738.922500", "180735.552500",
        "180739.165000", "180735.795000", "180739.405000", "180736.035000", "180739.645000",
        "180736.275000", "180739.905000", "180743.517500", "180740.147500", "180743.757500",
        "180740.387500", "180743.997500", "180740.627500", "180744.237500", "180740.870000",
        "180744.480000", "180741.110000", "180744.720000", "180741.350000", "180744.960000",
        "180741.590000", "180745.200000", "180741.832500", "180745.442500", "180742.072500",
        "180745.682500", "180742.312500", "180745.922500", "180742.552500", "180746.165000",
        "180742.795000", "180746.405000", "180743.035000", "180746.645000", "180743.275000",
        "180739.905000", "180743.517500", "180740.147500", "180743.757500", "180740.387500",
        "180743.997500", "180740.627500", "180744.237500", "180740.870000", "180744.480000",
        "180741.110000", "180744.720000", "180741.350000", "180744.960000", "180741.590000",
        "180745.200000", "180741.832500", "180745.442500", "180742.072500", "180745.682500",
        "180742.312500", "180745.922500", "180742.552500", "180746.165000", "180742.795000",
        "180746.405000", "180743.035000", "180746.645000", "180743.275000", "180739.905000",
        "180743.517500", "180740.147500", "180743.757500", "180740.387500", "180743.997500",
        "180740.627500", "180744.237500", "180740.870000", "180744.480000", "180741.110000",
        "180744.720000", "180741.350000", "180744.960000", "180741.590000", "180745.200000",
        "180741.832500", "180745.442500", "180742.072500", "180745.682500", "180742.312500",
        "180745.922500", "180742.552500", "180746.165000", "180742.795000", "180746.405000",
        "180743.035000", "180746.645000", "180743.275000", "180746.905000", "180750.517500",
        "180747.147500", "180750.757500", "180747.387500", "180750.997500", "180747.627500",
        "180751.237500", "180747.870000", "180751.480000", "180748.110000", "180751.720000",
        "180748.350000", "180751.960000", "180748.590000", "180752.200000", "180748.832500",
        "180752.442500", "180749.072500", "180752.682500", "180749.312500", "180752.922500",
        "180749.552500", "180753.165000", "180749.795000", "180753.405000", "180750.035000",
        "180753.645000", "180750.275000", "180746.905000", "180750.517500", "180747.147500",
        "180750.757500", "180747.387500", "180750.997500", "180747.627500", "180751.237500",
        "180747.870000", "180751.480000", "180748.110000", "180751.720000", "180748.350000",
        "180751.960000", "180748.590000", "180752.200000", "180748.832500", "180752.442500",
        "180749.072500", "180752.682500", "180749.312500", "180752.922500", "180749.552500",
        "180753.165000", "180749.795000", "180753.405000", "180750.035000", "180753.645000",
        "180750.275000", "180746.905000", "180750.517500", "180747.147500", "180750.757500",
        "180747.387500", "180750.997500", "180747.627500", "180751.237500", "180747.870000",
        "180751.480000", "180748.110000", "180751.720000", "180748.350000", "180751.960000",
        "180748.590000", "180752.200000", "180748.832500", "180752.442500", "180749.072500",
        "180752.682500", "180749.312500", "180752.922500", "180749.552500", "180753.165000",
        "180749.795000", "180753.405000", "180750.035000", "180753.645000", "180750.275000",
        "180753.905000", "180757.517500", "180754.147500", "180757.757500", "180754.387500",
        "180757.997500", "180754.627500", "180758.237500", "180754.870000", "180758.480000",
        "180755.110000", "180758.720000", "180755.350000", "180758.960000", "180755.590000",
        "180759.200000", "180755.832500", "180759.442500", "180756.072500", "180759.682500",
        "180756.312500", "180759.922500", "180756.552500", "180800.165000", "180756.795000",
        "180800.405000", "180757.035000", "180800.645000", "180757.275000", "180753.905000",
        "180757.517500", "180754.147500", "180757.757500", "180754.387500", "180757.997500",
        "180754.627500", "180758.237500", "180754.870000", "180758.480000", "180755.110000",
        "180758.720000", "180755.350000", "180758.960000", "180755.590000", "180759.200000",
        "180755.832500", "180759.442500", "180756.072500", "180759.682500", "180756.312500",
        "180759.922500", "180756.552500", "180800.165000", "180756.795000", "180800.405000",
        "180757.035000", "180800.645000", "180757.275000", "180753.905000", "180757.517500",
        "180754.147500", "180757.757500", "180754.387500", "180757.997500", "180754.627500",
        "180758.237500", "180754.870000", "180758.480000", "180755.110000", "180758.720000",
        "180755.350000", "180758.960000", "180755.590000", "180759.200000", "180755.832500",
        "180759.442500", "180756.072500", "180759.682500", "180756.312500", "180759.922500",
        "180756.552500", "180800.165000", "180756.795000", "180800.405000", "180757.035000",
        "180800.645000", "180757.275000", "180800.905000", "180804.517500", "180801.147500",
        "180804.757500", "180801.387500", "180804.997500", "180801.627500", "180805.237500",
        "180801.870000", "180805.480000", "180802.110000", "180805.720000", "180802.350000",
        "180805.960000", "180802.590000", "180806.200000", "180802.832500", "180806.442500",
        "180803.072500", "180806.682500", "180803.312500", "180806.922500", "180803.552500",
        "180807.165000", "180803.795000", "180807.405000", "180804.035000", "180807.645000",
        "180804.275000", "180800.905000", "180804.517500", "180801.147500", "180804.757500",
        "180801.387500", "180804.997500", "180801.627500", "180805.237500", "180801.870000",
        "180805.480000", "180802.110000", "180805.720000", "180802.350000", "180805.960000",
        "180802.590000", "180806.200000", "180802.832500", "180806.442500", "180803.072500",
        "180806.682500", "180803.312500", "180806.922500", "180803.552500", "180807.165000",
        "180803.795000", "180807.405000", "180804.035000", "180807.645000", "180804.275000",
        "180800.905000", "180804.517500", "180801.147500", "180804.757500", "180801.387500",
        "180804.997500", "180801.627500", "180805.237500", "180801.870000", "180805.480000",
        "180802.110000", "180805.720000", "180802.350000", "180805.960000", "180802.590000",
        "180806.200000", "180802.832500", "180806.442500", "180803.072500", "180806.682500",
        "180803.312500", "180806.922500", "180803.552500", "180807.165000", "180803.795000",
        "180807.405000", "180804.035000", "180807.645000", "180804.275000", "180807.905000",
        "180811.517500", "180808.147500", "180811.757500", "180808.387500", "180811.997500",
        "180808.627500", "180812.237500", "180808.870000", "180812.480000", "180809.110000",
        "180812.720000", "180809.350000", "180812.960000", "180809.590000", "180813.200000",
        "180809.832500", "180813.442500", "180810.072500", "180813.682500", "180810.312500",
        "180813.922500", "180810.552500", "180814.165000", "180810.795000", "180814.405000",
        "180811.035000", "180814.645000", "180811.275000", "180807.905000", "180811.517500",
        "180808.147500", "180811.757500", "180808.387500", "180811.997500", "180808.627500",
        "180812.237500", "180808.870000", "180812.480000", "180809.110000", "180812.720000",
        "180809.350000", "180812.960000", "180809.590000", "180813.200000", "180809.832500",
        "180813.442500", "180810.072500", "180813.682500", "180810.312500", "180813.922500",
        "180810.552500", "180814.165000", "180810.795000", "180814.405000", "180811.035000",
        "180814.645000", "180811.275000", "180807.905000", "180811.517500", "180808.147500",
        "180811.757500", "180808.387500", "180811.997500", "180808.627500", "180812.237500",
        "180808.870000", "180812.480000", "180809.110000", "180812.720000", "180809.350000",
        "180812.960000", "180809.590000", "180813.200000", "180809.832500", "180813.442500",
        "180810.072500", "180813.682500", "180810.312500", "180813.922500", "180810.552500",
        "180814.165000", "180810.795000", "180814.405000", "180811.035000", "180814.645000",
        "180811.275000", "180814.905000", "180818.517500", "180815.147500", "180818.757500",
        "180815.387500", "180818.997500", "180815.627500", "180819.237500", "180815.870000",
        "180819.480000", "180816.110000", "180819.720000", "180816.350000", "180819.960000",
        "180816.590000", "180820.200000", "180816.832500", "180820.442500", "180817.072500",
        "180820.682500", "180817.312500", "180820.922500", "180817.552500", "180821.165000",
        "180817.795000", "180821.405000", "180818.035000", "180821.645000", "180818.275000",
        "180814.905000", "180818.517500", "180815.147500", "180818.757500", "180815.387500",
        "180818.997500", "180815.627500", "180819.237500", "180815.870000", "180819.480000",
        "180816.110000", "180819.720000", "180816.350000", "180819.960000", "180816.590000",
        "180820.200000", "180816.832500", "180820.442500", "180817.072500", "180820.682500",
        "180817.312500", "180820.922500", "180817.552500", "180821.165000", "180817.795000",
        "180821.405000", "180818.035000", "180821.645000", "180818.275000", "180814.905000",
        "180818.517500", "180815.147500", "180818.757500", "180815.387500", "180818.997500",
        "180815.627500", "180819.237500", "180815.870000", "180819.480000", "180816.110000",
        "180819.720000", "180816.350000", "180819.960000", "180816.590000", "180820.200000",
        "180816.832500", "180820.442500", "180817.072500", "180820.682500", "180817.312500",
        "180820.922500", "180817.552500", "180821.165000", "180817.795000", "180821.405000",
        "180818.035000", "180821.645000", "180818.275000", "180821.905000", "180825.517500",
        "180822.147500", "180825.757500", "180822.387500", "180825.997500", "180822.627500",
        "180826.237500", "180822.870000", "180826.480000", "180823.110000", "180826.720000",
        "180823.350000", "180826.960000", "180823.590000", "180827.200000", "180823.832500",
        "180827.442500", "180824.072500", "180827.682500", "180824.312500", "180827.922500",
        "180824.552500", "180828.165000", "180824.795000", "180828.405000", "180825.035000",
        "180828.645000", "180825.275000", "180821.905000", "180825.517500", "180822.147500",
        "180825.757500", "180822.387500", "180825.997500", "180822.627500", "180826.237500",
        "180822.870000", "180826.480000", "180823.110000", "180826.720000", "180823.350000",
        "180826.960000", "180823.590000", "180827.200000", "180823.832500", "180827.442500",
        "180824.072500", "180827.682500", "180824.312500", "180827.922500", "180824.552500",
        "180828.165000", "180824.795000", "180828.405000", "180825.035000", "180828.645000",
        "180825.275000", "180821.905000", "180825.517500", "180822.147500", "180825.757500",
        "180822.387500", "180825.997500", "180822.627500", "180826.237500", "180822.870000",
        "180826.480000", "180823.110000", "180826.720000", "180823.350000", "180826.960000",
        "180823.590000", "180827.200000", "180823.832500", "180827.442500", "180824.072500",
        "180827.682500", "180824.312500", "180827.922500", "180824.552500", "180828.165000",
        "180824.795000", "180828.405000", "180825.035000", "180828.645000", "180825.275000",
        "180828.905000", "180832.517500", "180829.147500", "180832.757500", "180829.387500",
        "180832.997500", "180829.627500", "180833.237500", "180829.870000", "180833.480000",
        "180830.110000", "180833.720000", "180830.350000", "180833.960000", "180830.590000",
        "180834.200000", "180830.832500", "180834.442500", "180831.072500", "180834.682500",
        "180831.312500", "180834.922500", "180831.552500", "180835.165000", "180831.795000",
        "180835.405000", "180832.035000", "180835.645000", "180832.275000", "180828.905000",
        "180832.517500", "180829.147500", "180832.757500", "180829.387500", "180832.997500",
        "180829.627500", "180833.237500", "180829.870000", "180833.480000", "180830.110000",
        "180833.720000", "180830.350000", "180833.960000", "180830.590000", "180834.200000",
        "180830.832500", "180834.442500", "180831.072500", "180834.682500", "180831.312500",
        "180834.922500", "180831.552500", "180835.165000", "180831.795000", "180835.405000",
        "180832.035000", "180835.645000", "180832.275000", "180828.905000", "180832.517500",
        "180829.147500", "180832.757500", "180829.387500", "180832.997500", "180829.627500",
        "180833.237500", "180829.870000", "180833.480000", "180830.110000", "180833.720000",
        "180830.350000", "180833.960000", "180830.590000", "180834.200000", "180830.832500",
        "180834.442500", "180831.072500", "180834.682500", "180831.312500", "180834.922500",
        "180831.552500", "180835.165000", "180831.795000", "180835.405000", "180832.035000",
        "180835.645000", "180832.275000", "180835.905000", "180839.517500", "180836.147500",
        "180839.757500", "180836.387500", "180839.997500", "180836.627500", "180840.237500",
        "180836.870000", "180840.480000", "180837.110000", "180840.720000", "180837.350000",
        "180840.960000", "180837.590000", "180841.200000", "180837.832500", "180841.442500",
        "180838.072500", "180841.682500", "180838.312500", "180841.922500", "180838.552500",
        "180842.165000", "180838.795000", "180842.405000", "180839.035000", "180842.645000",
        "180839.275000", "180835.905000", "180839.517500", "180836.147500", "180839.757500",
        "180836.387500", "180839.997500", "180836.627500", "180840.237500", "180836.870000",
        "180840.480000", "180837.110000", "180840.720000", "180837.350000", "180840.960000",
        "180837.590000", "180841.200000", "180837.832500", "180841.442500", "180838.072500",
        "180841.682500", "180838.312500", "180841.922500", "180838.552500", "180842.165000",
        "180838.795000", "180842.405000", "180839.035000", "180842.645000", "180839.275000",
        "180835.905000", "180839.517500", "180836.147500", "180839.757500", "180836.387500",
        "180839.997500", "180836.627500", "180840.237500", "180836.870000", "180840.480000",
        "180837.110000", "180840.720000", "180837.350000", "180840.960000", "180837.590000",
        "180841.200000", "180837.832500", "180841.442500", "180838.072500", "180841.682500",
        "180838.312500", "180841.922500", "180838.552500", "180842.165000", "180838.795000",
        "180842.405000", "180839.035000", "180842.645000", "180839.275000", "180842.905000",
        "180846.517500", "180843.147500", "180846.757500", "180843.387500", "180846.997500",
        "180843.627500", "180847.237500", "180843.870000", "180847.480000", "180844.110000",
        "180847.720000", "180844.350000", "180847.960000", "180844.590000", "180848.200000",
        "180844.832500", "180848.442500", "180845.072500", "180848.682500", "180845.312500",
        "180848.922500", "180845.552500", "180849.165000", "180845.795000", "180849.405000",
        "180846.035000", "180849.645000", "180846.275000", "180842.905000", "180846.517500",
        "180843.147500", "180846.757500", "180843.387500", "180846.997500", "180843.627500",
        "180847.237500", "180843.870000", "180847.480000", "180844.110000", "180847.720000",
        "180844.350000", "180847.960000", "180844.590000", "180848.200000", "180844.832500",
        "180848.442500", "180845.072500", "180848.682500", "180845.312500", "180848.922500",
        "180845.552500", "180849.165000", "180845.795000", "180849.405000", "180846.035000",
        "180849.645000", "180846.275000", "180842.905000", "180846.517500", "180843.147500",
        "180846.757500", "180843.387500", "180846.997500", "180843.627500", "180847.237500",
        "180843.870000", "180847.480000", "180844.110000", "180847.720000", "180844.350000",
        "180847.960000", "180844.590000", "180848.200000", "180844.832500", "180848.442500",
        "180845.072500", "180848.682500", "180845.312500", "180848.922500", "180845.552500",
        "180849.165000", "180845.795000", "180849.405000", "180846.035000", "180849.645000",
        "180846.275000", "180849.905000", "180853.517500", "180850.147500", "180853.757500",
        "180850.387500", "180853.997500", "180850.627500", "180854.237500", "180850.870000",
        "180854.480000", "180851.110000", "180854.720000", "180851.350000", "180854.960000",
        "180851.590000", "180855.200000", "180851.832500", "180855.442500", "180852.072500",
        "180855.682500", "180852.312500", "180855.922500", "180852.552500", "180856.165000",
        "180852.795000", "180856.405000", "180853.035000", "180856.645000", "180853.275000",
        "180849.905000", "180853.517500", "180850.147500", "180853.757500", "180850.387500",
        "180853.997500", "180850.627500", "180854.237500", "180850.870000", "180854.480000",
        "180851.110000", "180854.720000", "180851.350000", "180854.960000", "180851.590000",
        "180855.200000", "180851.832500", "180855.442500", "180852.072500", "180855.682500",
        "180852.312500", "180855.922500", "180852.552500", "180856.165000", "180852.795000",
        "180856.405000", "180853.035000", "180856.645000", "180853.275000", "180849.905000",
        "180853.517500", "180850.147500", "180853.757500", "180850.387500", "180853.997500",
        "180850.627500", "180854.237500", "180850.870000", "180854.480000", "180851.110000",
        "180854.720000", "180851.350000", "180854.960000", "180851.590000", "180855.200000",
        "180851.832500", "180855.442500", "180852.072500", "180855.682500", "180852.312500",
        "180855.922500", "180852.552500", "180856.165000", "180852.795000", "180856.405000",
        "180853.035000", "180856.645000", "180853.275000", "180856.905000", "180900.517500",
        "180857.147500", "180900.757500", "180857.387500", "180900.997500", "180857.627500",
        "180901.237500", "180857.870000", "180901.480000", "180858.110000", "180901.720000",
        "180858.350000", "180901.960000", "180858.590000", "180902.200000", "180858.832500",
        "180902.442500", "180859.072500", "180902.682500", "180859.312500", "180902.922500",
        "180859.552500", "180903.165000", "180859.795000", "180903.405000", "180900.035000",
        "180903.645000", "180900.275000", "180856.905000", "180900.517500", "180857.147500",
        "180900.757500", "180857.387500", "180900.997500", "180857.627500", "180901.237500",
        "180857.870000", "180901.480000", "180858.110000", "180901.720000", "180858.350000",
        "180901.960000", "180858.590000", "180902.200000", "180858.832500", "180902.442500",
        "180859.072500", "180902.682500", "180859.312500", "180902.922500", "180859.552500",
        "180903.165000", "180859.795000", "180903.405000", "180900.035000", "180903.645000",
        "180900.275000", "180856.905000", "180900.517500", "180857.147500", "180900.757500",
        "180857.387500", "180900.997500", "180857.627500", "180901.237500", "180857.870000",
        "180901.480000", "180858.110000", "180901.720000", "180858.350000", "180901.960000",
        "180858.590000", "180902.200000", "180858.832500", "180902.442500", "180859.072500",
        "180902.682500", "180859.312500", "180902.922500", "180859.552500", "180903.165000",
        "180859.795000", "180903.405000", "180900.035000", "180903.645000", "180900.275000",
        "180903.905000", "180907.517500", "180904.147500", "180907.757500", "180904.387500",
        "180907.997500", "180904.627500", "180908.237500", "180904.870000", "180908.480000",
        "180905.110000", "180908.720000", "180905.350000", "180908.960000", "180905.590000",
        "180909.200000", "180905.832500", "180909.442500", "180906.072500", "180909.682500",
        "180906.312500", "180909.922500", "180906.552500", "180910.165000", "180906.795000",
        "180910.405000", "180907.035000", "180910.645000", "180907.275000", "180903.905000",
        "180907.517500", "180904.147500", "180907.757500", "180904.387500", "180907.997500",
        "180904.627500", "180908.237500", "180904.870000", "180908.480000", "180905.110000",
        "180908.720000", "180905.350000", "180908.960000", "180905.590000", "180909.200000",
