{
  "AcquisitionMatrixPE": 146,
  "AcquisitionTime": "18:05:25.630000",
  "B0FieldSource": ["pilot020pepolarb0", "pilot020phasediff"],
  "BandwidthPerPixelPhaseEncode": 19.569,
  "BaseResolution": 146,
  "DerivedVendorReportedEchoSpacing": 0.000700017,
  "DwellTime": 2.1e-06,
  "EchoTime": 0.098,
  "EchoTrainLength": 64,
  "EffectiveEchoSpacing": 0.000350008,
  "ImageOrientationPatientDICOM": [
    0.998972,
    0.0313919,
    0.0326963,
    -0.0286018,
    0.996175,
    -0.0825621
  ],
  "PhaseEncodingSteps": 146,
  "PixelBandwidth": 1631,
  "ProtocolName": "dwi-dwi_acq-highres_dir-PA__trigger_monopolar",
  "PulseSequenceDetails": "%CustomerSeq%\\ep2d_diff_trigg",
  "ReceiveCoilActiveElements": "HC1-7",
  "ReconMatrixPE": 146,
  "RefLinesPE": 54,
  "RepetitionTime": 7,
  "SAR": 0.172128,
  "SequenceName": "ep_b0",
  "SeriesDescription": "dwi-dwi_acq-highres_dir-PA__trigger_monopolar",
  "SeriesNumber": 11,
  "ShimSetting": [
    8231,
    -5631,
    -6044,
    606,
    -47,
    -362,
    14,
    0
  ],
  "SliceThickness": 1.6,
  "SliceTiming": [
    0, 6.145, 0.14, 6.285, 0.28, 6.425, 0.42, 6.5625, 0.56, 6.7025, 0.6975, 6.8425, 0.8375, 6.9825,
    0.9775, 7.1225, 1.1175, 7.2625, 1.2575, 7.4025, 1.3975, 7.54, 1.5375, 7.68, 1.675, 7.82, 1.815,
    7.96, 1.955, 8.1, 2.095, 8.24, 2.235, 8.38, 2.375, 8.5175, 2.515, 8.6575, 2.6525, 8.7975, 2.7925,
    8.9375, 2.9325, 9.0775, 3.0725, 9.2175, 3.2125, 9.355, 3.3525, 9.495, 3.4925, 9.635, 3.63, 9.775,
    3.77, 9.915, 3.91, 10.055, 4.05, 10.195, 4.19, 10.3325, 4.33, 10.4725, 4.47, 10.6125, 4.6075,
    10.7525, 4.7475, 10.8925, 4.8875, 11.0325, 5.0275, 11.1725, 5.1675, 11.31, 5.3075, 11.45, 5.4475,
    11.59, 5.585, 11.73, 5.725, 11.87, 5.865, 12.01, 6.005
  ],
  "SpacingBetweenSlices": 1.6,
  "TotalReadoutTime": 0.0507512,
  "TxRefAmp": 247.631,
  "dcmmeta_affine": [
    [-1.6353071928024292, -0.04682086035609245, 0.0560000017285347, 120.50602722167969],
    [-0.051388226449489594, 1.6307284832000732, -0.13099999725818634, -92.5056381225586],
    [0.05352351441979408, 0.13515333831310272, 1.5937000513076782, -71.39403533935547],
    [0.0, 0.0, 0.0, 1.0]
  ],
  "dcmmeta_reorient_transform": [
    [0.0, -1.0, 0.0, 145.0],
    [1.0, 0.0, 0.0, 0.0],
    [0.0, 0.0, -1.0, 86.0],
    [0.0, 0.0, 0.0, 1.0]
  ],
  "dcmmeta_shape": [146, 146, 87, 2],
  "global": {
    "const": {
      "AcquisitionMatrix": [146, 0, 0, 146],
      "AngioFlag": "N",
      "BeatRejectionFlag": "N",
      "BitsAllocated": 16,
      "BitsStored": 12,
      "BodyPartExamined": "BRAIN",
      "BurnedInAnnotation": "NO",
      "CardiacNumberOfImages": 1,
      "Columns": 146,
      "ConfidentialityCode": "N",
      "ContentQualification": "RESEARCH",
      "EchoTime": 98.0,
      "EchoTrainLength": 64,
      "FlipAngle": 90.0,
      "HighBit": 11,
      "ImageOrientationPatient": [
        0.998972,
        0.0313919,
        0.0326963,
        -0.0286018,
        0.996175,
        -0.0825621
      ],
      "ImageType": [
        "ORIGINAL",
        "PRIMARY",
        "DIFFUSION",
        "NONE",
        "ND",
        "MFSPLIT"
      ],
      "ImagedNucleus": "1H",
      "ImagingFrequency": 123.248108,
      "InPlanePhaseEncodingDirection": "COL",
      "LossyImageCompression": "00",
      "MRAcquisitionType": "2D",
      "MagneticFieldStrength": 3.0,
      "Manufacturer": "Siemens Healthineers",
      "ManufacturerModelName": "MAGNETOM Prisma Fit",
      "ModalitiesInStudy": ["MR", "SR"],
      "Modality": "MR",
      "NumberOfAverages": 1.0,
      "NumberOfPhaseEncodingSteps": 146,
      "NumberOfStudyRelatedInstances": 32133,
      "NumberOfTemporalPositions": 280,
      "PercentPhaseFieldOfView": 100.0,
      "PercentSampling": 100.0,
      "PerformedProcedureStepStartTime": "171829.900000",
      "PhotometricInterpretation": "MONOCHROME2",
      "PixelBandwidth": 1631.0,
      "PixelRepresentation": 0,
      "PixelSpacing": [1.63699, 1.63699],
      "PresentationLUTShape": "IDENTITY",
      "ProtocolName": "dwi-dwi_acq-highres_dir-PA__trigger_monopolar",
      "ReceiveCoilName": "HeadNeck_64",
      "RepetitionTime": 7000.0,
      "RescaleIntercept": 0.0,
      "RescaleSlope": 1.0,
      "Rows": 146,
      "SAR": 0.17212809314683,
      "SamplesPerPixel": 1,
      "ScanOptions": ["PFP", "FS", "PER"],
      "ScanningSequence": ["GR", "EP"],
      "SequenceVariant": "SK",
      "SeriesDescription": "dwi-dwi_acq-highres_dir-PA__trigger_monopolar",
      "SeriesNumber": 11,
      "SeriesTime": "180533",
      "SliceThickness": 1.6,
      "SmallestImagePixelValue": 0,
      "SoftwareVersions": "syngo MR XA30",
      "SpacingBetweenSlices": 1.6,
      "SpecificCharacterSet": "ISO_IR 100",
      "StudyID": "7f552491-f0ae-4c",
      "StudyTime": "171829",
      "TransmitCoilName": "Body"
    },
    "slices": {
      "AcquisitionTime": [
        "180525.630000", "180529.240000", "180525.872500", "180529.482500", "180526.112500",
        "180529.722500", "180526.352500", "180529.962500", "180526.592500", "180530.205000",
        "180526.835000", "180530.445000", "180527.075000", "180530.685000", "180527.315000",
        "180530.925000", "180527.557500", "180531.167500", "180527.797500", "180531.407500",
        "180528.037500", "180531.647500", "180528.277500", "180531.887500", "180528.520000",
        "180532.130000", "180528.760000", "180532.370000", "180529.000000", "180525.630000",
        "180529.240000", "180525.872500", "180529.482500", "180526.112500", "180529.722500",
        "180526.352500", "180529.962500", "180526.592500", "180530.205000", "180526.835000",
        "180530.445000", "180527.075000", "180530.685000", "180527.315000", "180530.925000",
        "180527.557500", "180531.167500", "180527.797500", "180531.407500", "180528.037500",
        "180531.647500", "180528.277500", "180531.887500", "180528.520000", "180532.130000",
        "180528.760000", "180532.370000", "180529.000000", "180525.630000", "180529.240000",
        "180525.872500", "180529.482500", "180526.112500", "180529.722500", "180526.352500",
        "180529.962500", "180526.592500", "180530.205000", "180526.835000", "180530.445000",
        "180527.075000", "180530.685000", "180527.315000", "180530.925000", "180527.557500",
        "180531.167500", "180527.797500", "180531.407500", "180528.037500", "180531.647500",
        "180528.277500", "180531.887500", "180528.520000", "180532.130000", "180528.760000",
        "180532.370000", "180529.000000", "180532.630000", "180536.240000", "180532.872500",
        "180536.482500", "180533.112500", "180536.722500", "180533.352500", "180536.962500",
        "180533.592500", "180537.205000", "180533.835000", "180537.445000", "180534.075000",
        "180537.685000", "180534.315000", "180537.925000", "180534.557500", "180538.167500",
        "180534.797500", "180538.407500", "180535.037500", "180538.647500", "180535.277500",
        "180538.887500", "180535.520000", "180539.130000", "180535.760000", "180539.370000",
        "180536.000000", "180532.630000", "180536.240000", "180532.872500", "180536.482500",
        "180533.112500", "180536.722500", "180533.352500", "180536.962500", "180533.592500",
        "180537.205000", "180533.835000", "180537.445000", "180534.075000", "180537.685000",
        "180534.315000", "180537.925000", "180534.557500", "180538.167500", "180534.797500",
        "180538.407500", "180535.037500", "180538.647500", "180535.277500", "180538.887500",
        "180535.520000", "180539.130000", "180535.760000", "180539.370000", "180536.000000",
        "180532.630000", "180536.240000", "180532.872500", "180536.482500", "180533.112500",
        "180536.722500", "180533.352500", "180536.962500", "180533.592500", "180537.205000",
        "180533.835000", "180537.445000", "180534.075000", "180537.685000", "180534.315000",
        "180537.925000", "180534.557500", "180538.167500", "180534.797500", "180538.407500",
        "180535.037500", "180538.647500", "180535.277500", "180538.887500", "180535.520000",
        "180539.130000", "180535.760000", "180539.370000", "180536.000000"
      ],
      "ConversionSourceAttributesSequence": [
        [
          {
            "ReferencedFrameNumber": 1,
            "ReferencedSOPClassUID": "1.2.840.10008.5.1.4.1.1.4.1",
            "ReferencedSOPInstanceUID": "1.3.12.2.1107.5.2.43.67014.2023100518053388957312345"
          }
        ],
        [
          {
            "ReferencedFrameNumber": 2,
            "ReferencedSOPClassUID": "1.2.840.10008.5.1.4.1.1.4.1",
            "ReferencedSOPInstanceUID": "1.3.12.2.1107.5.2.43.67014.2023100518053388957312345"
          }
        ],
        [
          {
            "ReferencedFrameNumber": 3,
            "ReferencedSOPClassUID": "1.2.840.10008.5.1.4.1.1.4.1",
            "ReferencedSOPInstanceUID": "1.3.12.2.1107.5.2.43.67014.2023100518053388957312345"
          }
        ],
        [
          {
            "ReferencedFrameNumber": 4,
            "ReferencedSOPClassUID": "1.2.840.10008.5.1.4.1.1.4.1",
            "ReferencedSOPInstanceUID": "1.3.12.2.1107.5.2.43.67014.2023100518053388957312345"
          }
        ],
        [
          {
            "ReferencedFrameNumber": 5,
            "ReferencedSOPClassUID": "1.2.840.10008.5.1.4.1.1.4.1",
            "ReferencedSOPInstanceUID": "1.3.12.2.1107.5.2.43.67014.2023100518053388957312345"
          }
        ],
        [
          {
            "ReferencedFrameNumber": 6,
            "ReferencedSOPClassUID": "1.2.840.10008.5.1.4.1.1.4.1",
            "ReferencedSOPInstanceUID": "1.3.12.2.1107.5.2.43.67014.2023100518053388957312345"
          }
        ],
        [
          {
            "ReferencedFrameNumber": 7,
            "ReferencedSOPClassUID": "1.2.840.10008.5.1.4.1.1.4.1",
            "ReferencedSOPInstanceUID": "1.3.12.2.1107.5.2.43.67014.2023100518053388957312345"
          }
        ],
        [
          {
            "ReferencedFrameNumber": 8,
            "ReferencedSOPClassUID": "1.2.840.10008.5.1.4.1.1.4.1",
            "ReferencedSOPInstanceUID": "1.3.12.2.1107.5.2.43.67014.2023100518053388957312345"
          }
        ],
        [
          {
            "ReferencedFrameNumber": 9,
            "ReferencedSOPClassUID": "1.2.840.10008.5.1.4.1.1.4.1",
            "ReferencedSOPInstanceUID": "1.3.12.2.1107.5.2.43.67014.2023100518053388957312345"
          }
        ],
        [
          {
            "ReferencedFrameNumber": 10,
            "ReferencedSOPClassUID": "1.2.840.10008.5.1.4.1.1.4.1",
            "ReferencedSOPInstanceUID": "1.3.12.2.1107.5.2.43.67014.2023100518053388957312345"
          }
        ],
        [
          {
            "ReferencedFrameNumber": 11,
            "ReferencedSOPClassUID": "1.2.840.10008.5.1.4.1.1.4.1",
            "ReferencedSOPInstanceUID": "1.3.12.2.1107.5.2.43.67014.2023100518053388957312345"
          }
        ],
        [
          {
            "ReferencedFrameNumber": 12,
            "ReferencedSOPClassUID": "1.2.840.10008.5.1.4.1.1.4.1",
            "ReferencedSOPInstanceUID": "1.3.12.2.1107.5.2.43.67014.2023100518053388957312345"
          }
        ],
        [
          {
            "ReferencedFrameNumber": 13,
            "ReferencedSOPClassUID": "1.2.840.10008.5.1.4.1.1.4.1",
            "ReferencedSOPInstanceUID": "1.3.12.2.1107.5.2.43.67014.2023100518053388957312345"
          }
        ],
        [
          {
            "ReferencedFrameNumber": 14,
            "ReferencedSOPClassUID": "1.2.840.10008.5.1.4.1.1.4.1",
            "ReferencedSOPInstanceUID": "1.3.12.2.1107.5.2.43.67014.2023100518053388957312345"
          }
        ],
        [
          {
            "ReferencedFrameNumber": 15,
            "ReferencedSOPClassUID": "1.2.840.10008.5.1.4.1.1.4.1",
            "ReferencedSOPInstanceUID": "1.3.12.2.1107.5.2.43.67014.2023100518053388957312345"
          }
        ],
        [
          {
            "ReferencedFrameNumber": 16,
            "ReferencedSOPClassUID": "1.2.840.10008.5.1.4.1.1.4.1",
            "ReferencedSOPInstanceUID": "1.3.12.2.1107.5.2.43.67014.2023100518053388957312345"
          }
        ],
        [
          {
            "ReferencedFrameNumber": 17,
            "ReferencedSOPClassUID": "1.2.840.10008.5.1.4.1.1.4.1",
            "ReferencedSOPInstanceUID": "1.3.12.2.1107.5.2.43.67014.2023100518053388957312345"
          }
        ],
        [
          {
            "ReferencedFrameNumber": 18,
            "ReferencedSOPClassUID": "1.2.840.10008.5.1.4.1.1.4.1",
            "ReferencedSOPInstanceUID": "1.3.12.2.1107.5.2.43.67014.2023100518053388957312345"
          }
        ],
        [
          {
            "ReferencedFrameNumber": 19,
            "ReferencedSOPClassUID": "1.2.840.10008.5.1.4.1.1.4.1",
            "ReferencedSOPInstanceUID": "1.3.12.2.1107.5.2.43.67014.2023100518053388957312345"
          }
        ],
        [
          {
            "ReferencedFrameNumber": 20,
            "ReferencedSOPClassUID": "1.2.840.10008.5.1.4.1.1.4.1",
            "ReferencedSOPInstanceUID": "1.3.12.2.1107.5.2.43.67014.2023100518053388957312345"
          }
        ],
        [
          {
            "ReferencedFrameNumber": 21,
            "ReferencedSOPClassUID": "1.2.840.10008.5.1.4.1.1.4.1",
            "ReferencedSOPInstanceUID": "1.3.12.2.1107.5.2.43.67014.2023100518053388957312345"
          }
        ],
        [
          {
            "ReferencedFrameNumber": 22,
            "ReferencedSOPClassUID": "1.2.840.10008.5.1.4.1.1.4.1",
            "ReferencedSOPInstanceUID": "1.3.12.2.1107.5.2.43.67014.2023100518053388957312345"
          }
        ],
        [
          {
            "ReferencedFrameNumber": 23,
            "ReferencedSOPClassUID": "1.2.840.10008.5.1.4.1.1.4.1",
            "ReferencedSOPInstanceUID": "1.3.12.2.1107.5.2.43.67014.2023100518053388957312345"
          }
        ],
        [
          {
            "ReferencedFrameNumber": 24,
            "ReferencedSOPClassUID": "1.2.840.10008.5.1.4.1.1.4.1",
            "ReferencedSOPInstanceUID": "1.3.12.2.1107.5.2.43.67014.2023100518053388957312345"
          }
        ],
        [
          {
            "ReferencedFrameNumber": 25,
            "ReferencedSOPClassUID": "1.2.840.10008.5.1.4.1.1.4.1",
            "ReferencedSOPInstanceUID": "1.3.12.2.1107.5.2.43.67014.2023100518053388957312345"
          }
        ],
        [
          {
            "ReferencedFrameNumber": 26,
            "ReferencedSOPClassUID": "1.2.840.10008.5.1.4.1.1.4.1",
            "ReferencedSOPInstanceUID": "1.3.12.2.1107.5.2.43.67014.2023100518053388957312345"
          }
        ],
        [
          {
            "ReferencedFrameNumber": 27,
            "ReferencedSOPClassUID": "1.2.840.10008.5.1.4.1.1.4.1",
            "ReferencedSOPInstanceUID": "1.3.12.2.1107.5.2.43.67014.2023100518053388957312345"
          }
        ],
        [
          {
            "ReferencedFrameNumber": 28,
            "ReferencedSOPClassUID": "1.2.840.10008.5.1.4.1.1.4.1",
            "ReferencedSOPInstanceUID": "1.3.12.2.1107.5.2.43.67014.2023100518053388957312345"
          }
        ],
        [
          {
            "ReferencedFrameNumber": 29,
            "ReferencedSOPClassUID": "1.2.840.10008.5.1.4.1.1.4.1",
            "ReferencedSOPInstanceUID": "1.3.12.2.1107.5.2.43.67014.2023100518053388957312345"
          }
        ],
        [
          {
            "ReferencedFrameNumber": 30,
            "ReferencedSOPClassUID": "1.2.840.10008.5.1.4.1.1.4.1",
            "ReferencedSOPInstanceUID": "1.3.12.2.1107.5.2.43.67014.2023100518053388957312345"
          }
        ],
        [
          {
            "ReferencedFrameNumber": 31,
            "ReferencedSOPClassUID": "1.2.840.10008.5.1.4.1.1.4.1",
            "ReferencedSOPInstanceUID": "1.3.12.2.1107.5.2.43.67014.2023100518053388957312345"
          }
        ],
        [
          {
            "ReferencedFrameNumber": 32,
            "ReferencedSOPClassUID": "1.2.840.10008.5.1.4.1.1.4.1",
            "ReferencedSOPInstanceUID": "1.3.12.2.1107.5.2.43.67014.2023100518053388957312345"
          }
        ],
        [
          {
            "ReferencedFrameNumber": 33,
            "ReferencedSOPClassUID": "1.2.840.10008.5.1.4.1.1.4.1",
            "ReferencedSOPInstanceUID": "1.3.12.2.1107.5.2.43.67014.2023100518053388957312345"
          }
        ],
        [
          {
            "ReferencedFrameNumber": 34,
            "ReferencedSOPClassUID": "1.2.840.10008.5.1.4.1.1.4.1",
            "ReferencedSOPInstanceUID": "1.3.12.2.1107.5.2.43.67014.2023100518053388957312345"
          }
        ],
        [
          {
            "ReferencedFrameNumber": 35,
            "ReferencedSOPClassUID": "1.2.840.10008.5.1.4.1.1.4.1",
            "ReferencedSOPInstanceUID": "1.3.12.2.1107.5.2.43.67014.2023100518053388957312345"
          }
        ],
        [
          {
            "ReferencedFrameNumber": 36,
            "ReferencedSOPClassUID": "1.2.840.10008.5.1.4.1.1.4.1",
            "ReferencedSOPInstanceUID": "1.3.12.2.1107.5.2.43.67014.2023100518053388957312345"
          }
        ],
        [
          {
            "ReferencedFrameNumber": 37,
            "ReferencedSOPClassUID": "1.2.840.10008.5.1.4.1.1.4.1",
            "ReferencedSOPInstanceUID": "1.3.12.2.1107.5.2.43.67014.2023100518053388957312345"
          }
        ],
        [
          {
            "ReferencedFrameNumber": 38,
            "ReferencedSOPClassUID": "1.2.840.10008.5.1.4.1.1.4.1",
            "ReferencedSOPInstanceUID": "1.3.12.2.1107.5.2.43.67014.2023100518053388957312345"
          }
        ],
        [
          {
            "ReferencedFrameNumber": 39,
            "ReferencedSOPClassUID": "1.2.840.10008.5.1.4.1.1.4.1",
            "ReferencedSOPInstanceUID": "1.3.12.2.1107.5.2.43.67014.2023100518053388957312345"
          }
        ],
        [
          {
            "ReferencedFrameNumber": 40,
            "ReferencedSOPClassUID": "1.2.840.10008.5.1.4.1.1.4.1",
            "ReferencedSOPInstanceUID": "1.3.12.2.1107.5.2.43.67014.2023100518053388957312345"
          }
        ],
        [
          {
            "ReferencedFrameNumber": 41,
            "ReferencedSOPClassUID": "1.2.840.10008.5.1.4.1.1.4.1",
            "ReferencedSOPInstanceUID": "1.3.12.2.1107.5.2.43.67014.2023100518053388957312345"
          }
        ],
        [
          {
            "ReferencedFrameNumber": 42,
            "ReferencedSOPClassUID": "1.2.840.10008.5.1.4.1.1.4.1",
            "ReferencedSOPInstanceUID": "1.3.12.2.1107.5.2.43.67014.2023100518053388957312345"
          }
        ],
        [
          {
            "ReferencedFrameNumber": 43,
            "ReferencedSOPClassUID": "1.2.840.10008.5.1.4.1.1.4.1",
            "ReferencedSOPInstanceUID": "1.3.12.2.1107.5.2.43.67014.2023100518053388957312345"
          }
        ],
        [
          {
            "ReferencedFrameNumber": 44,
            "ReferencedSOPClassUID": "1.2.840.10008.5.1.4.1.1.4.1",
            "ReferencedSOPInstanceUID": "1.3.12.2.1107.5.2.43.67014.2023100518053388957312345"
          }
        ],
        [
          {
            "ReferencedFrameNumber": 45,
            "ReferencedSOPClassUID": "1.2.840.10008.5.1.4.1.1.4.1",
            "ReferencedSOPInstanceUID": "1.3.12.2.1107.5.2.43.67014.2023100518053388957312345"
          }
        ],
        [
          {
            "ReferencedFrameNumber": 46,
            "ReferencedSOPClassUID": "1.2.840.10008.5.1.4.1.1.4.1",
            "ReferencedSOPInstanceUID": "1.3.12.2.1107.5.2.43.67014.2023100518053388957312345"
          }
        ],
        [
          {
            "ReferencedFrameNumber": 47,
            "ReferencedSOPClassUID": "1.2.840.10008.5.1.4.1.1.4.1",
            "ReferencedSOPInstanceUID": "1.3.12.2.1107.5.2.43.67014.2023100518053388957312345"
          }
        ],
        [
          {
            "ReferencedFrameNumber": 48,
            "ReferencedSOPClassUID": "1.2.840.10008.5.1.4.1.1.4.1",
            "ReferencedSOPInstanceUID": "1.3.12.2.1107.5.2.43.67014.2023100518053388957312345"
          }
        ],
        [
          {
            "ReferencedFrameNumber": 49,
            "ReferencedSOPClassUID": "1.2.840.10008.5.1.4.1.1.4.1",
            "ReferencedSOPInstanceUID": "1.3.12.2.1107.5.2.43.67014.2023100518053388957312345"
          }
        ],
        [
          {
            "ReferencedFrameNumber": 50,
            "ReferencedSOPClassUID": "1.2.840.10008.5.1.4.1.1.4.1",
            "ReferencedSOPInstanceUID": "1.3.12.2.1107.5.2.43.67014.2023100518053388957312345"
          }
        ],
        [
          {
            "ReferencedFrameNumber": 51,
            "ReferencedSOPClassUID": "1.2.840.10008.5.1.4.1.1.4.1",
            "ReferencedSOPInstanceUID": "1.3.12.2.1107.5.2.43.67014.2023100518053388957312345"
          }
        ],
        [
          {
            "ReferencedFrameNumber": 52,
            "ReferencedSOPClassUID": "1.2.840.10008.5.1.4.1.1.4.1",
            "ReferencedSOPInstanceUID": "1.3.12.2.1107.5.2.43.67014.2023100518053388957312345"
          }
        ],
        [
          {
            "ReferencedFrameNumber": 53,
            "ReferencedSOPClassUID": "1.2.840.10008.5.1.4.1.1.4.1",
            "ReferencedSOPInstanceUID": "1.3.12.2.1107.5.2.43.67014.2023100518053388957312345"
          }
        ],
        [
          {
            "ReferencedFrameNumber": 54,
            "ReferencedSOPClassUID": "1.2.840.10008.5.1.4.1.1.4.1",
            "ReferencedSOPInstanceUID": "1.3.12.2.1107.5.2.43.67014.2023100518053388957312345"
          }
        ],
        [
          {
            "ReferencedFrameNumber": 55,
            "ReferencedSOPClassUID": "1.2.840.10008.5.1.4.1.1.4.1",
            "ReferencedSOPInstanceUID": "1.3.12.2.1107.5.2.43.67014.2023100518053388957312345"
          }
        ],
        [
          {
            "ReferencedFrameNumber": 56,
            "ReferencedSOPClassUID": "1.2.840.10008.5.1.4.1.1.4.1",
            "ReferencedSOPInstanceUID": "1.3.12.2.1107.5.2.43.67014.2023100518053388957312345"
          }
        ],
        [
          {
            "ReferencedFrameNumber": 57,
            "ReferencedSOPClassUID": "1.2.840.10008.5.1.4.1.1.4.1",
            "ReferencedSOPInstanceUID": "1.3.12.2.1107.5.2.43.67014.2023100518053388957312345"
          }
        ],
        [
          {
            "ReferencedFrameNumber": 58,
            "ReferencedSOPClassUID": "1.2.840.10008.5.1.4.1.1.4.1",
            "ReferencedSOPInstanceUID": "1.3.12.2.1107.5.2.43.67014.2023100518053388957312345"
          }
        ],
        [
          {
            "ReferencedFrameNumber": 59,
            "ReferencedSOPClassUID": "1.2.840.10008.5.1.4.1.1.4.1",
            "ReferencedSOPInstanceUID": "1.3.12.2.1107.5.2.43.67014.2023100518053388957312345"
          }
        ],
        [
          {
            "ReferencedFrameNumber": 60,
            "ReferencedSOPClassUID": "1.2.840.10008.5.1.4.1.1.4.1",
            "ReferencedSOPInstanceUID": "1.3.12.2.1107.5.2.43.67014.2023100518053388957312345"
          }
        ],
        [
          {
            "ReferencedFrameNumber": 61,
            "ReferencedSOPClassUID": "1.2.840.10008.5.1.4.1.1.4.1",
            "ReferencedSOPInstanceUID": "1.3.12.2.1107.5.2.43.67014.2023100518053388957312345"
          }
        ],
        [
          {
            "ReferencedFrameNumber": 62,
            "ReferencedSOPClassUID": "1.2.840.10008.5.1.4.1.1.4.1",
            "ReferencedSOPInstanceUID": "1.3.12.2.1107.5.2.43.67014.2023100518053388957312345"
          }
        ],
        [
          {
            "ReferencedFrameNumber": 63,
            "ReferencedSOPClassUID": "1.2.840.10008.5.1.4.1.1.4.1",
            "ReferencedSOPInstanceUID": "1.3.12.2.1107.5.2.43.67014.2023100518053388957312345"
          }
        ],
        [
          {
            "ReferencedFrameNumber": 64,
            "ReferencedSOPClassUID": "1.2.840.10008.5.1.4.1.1.4.1",
            "ReferencedSOPInstanceUID": "1.3.12.2.1107.5.2.43.67014.2023100518053388957312345"
          }
        ],
        [
          {
            "ReferencedFrameNumber": 65,
            "ReferencedSOPClassUID": "1.2.840.10008.5.1.4.1.1.4.1",
            "ReferencedSOPInstanceUID": "1.3.12.2.1107.5.2.43.67014.2023100518053388957312345"
          }
        ],
        [
          {
            "ReferencedFrameNumber": 66,
            "ReferencedSOPClassUID": "1.2.840.10008.5.1.4.1.1.4.1",
            "ReferencedSOPInstanceUID": "1.3.12.2.1107.5.2.43.67014.2023100518053388957312345"
          }
        ],
        [
          {
            "ReferencedFrameNumber": 67,
            "ReferencedSOPClassUID": "1.2.840.10008.5.1.4.1.1.4.1",
            "ReferencedSOPInstanceUID": "1.3.12.2.1107.5.2.43.67014.2023100518053388957312345"
          }
        ],
        [
          {
            "ReferencedFrameNumber": 68,
            "ReferencedSOPClassUID": "1.2.840.10008.5.1.4.1.1.4.1",
            "ReferencedSOPInstanceUID": "1.3.12.2.1107.5.2.43.67014.2023100518053388957312345"
          }
        ],
        [
          {
            "ReferencedFrameNumber": 69,
            "ReferencedSOPClassUID": "1.2.840.10008.5.1.4.1.1.4.1",
            "ReferencedSOPInstanceUID": "1.3.12.2.1107.5.2.43.67014.2023100518053388957312345"
          }
        ],
        [
          {
            "ReferencedFrameNumber": 70,
            "ReferencedSOPClassUID": "1.2.840.10008.5.1.4.1.1.4.1",
            "ReferencedSOPInstanceUID": "1.3.12.2.1107.5.2.43.67014.2023100518053388957312345"
          }
        ],
        [
          {
            "ReferencedFrameNumber": 71,
            "ReferencedSOPClassUID": "1.2.840.10008.5.1.4.1.1.4.1",
            "ReferencedSOPInstanceUID": "1.3.12.2.1107.5.2.43.67014.2023100518053388957312345"
          }
        ],
        [
          {
            "ReferencedFrameNumber": 72,
            "ReferencedSOPClassUID": "1.2.840.10008.5.1.4.1.1.4.1",
            "ReferencedSOPInstanceUID": "1.3.12.2.1107.5.2.43.67014.2023100518053388957312345"
          }
        ],
        [
          {
            "ReferencedFrameNumber": 73,
            "ReferencedSOPClassUID": "1.2.840.10008.5.1.4.1.1.4.1",
            "ReferencedSOPInstanceUID": "1.3.12.2.1107.5.2.43.67014.2023100518053388957312345"
          }
        ],
        [
          {
            "ReferencedFrameNumber": 74,
            "ReferencedSOPClassUID": "1.2.840.10008.5.1.4.1.1.4.1",
            "ReferencedSOPInstanceUID": "1.3.12.2.1107.5.2.43.67014.2023100518053388957312345"
          }
        ],
        [
          {
            "ReferencedFrameNumber": 75,
            "ReferencedSOPClassUID": "1.2.840.10008.5.1.4.1.1.4.1",
            "ReferencedSOPInstanceUID": "1.3.12.2.1107.5.2.43.67014.2023100518053388957312345"
          }
        ],
        [
          {
            "ReferencedFrameNumber": 76,
            "ReferencedSOPClassUID": "1.2.840.10008.5.1.4.1.1.4.1",
            "ReferencedSOPInstanceUID": "1.3.12.2.1107.5.2.43.67014.2023100518053388957312345"
          }
        ],
        [
          {
            "ReferencedFrameNumber": 77,
            "ReferencedSOPClassUID": "1.2.840.10008.5.1.4.1.1.4.1",
            "ReferencedSOPInstanceUID": "1.3.12.2.1107.5.2.43.67014.2023100518053388957312345"
          }
        ],
        [
          {
            "ReferencedFrameNumber": 78,
            "ReferencedSOPClassUID": "1.2.840.10008.5.1.4.1.1.4.1",
            "ReferencedSOPInstanceUID": "1.3.12.2.1107.5.2.43.67014.2023100518053388957312345"
          }
        ],
        [
          {
            "ReferencedFrameNumber": 79,
            "ReferencedSOPClassUID": "1.2.840.10008.5.1.4.1.1.4.1",
            "ReferencedSOPInstanceUID": "1.3.12.2.1107.5.2.43.67014.2023100518053388957312345"
          }
        ],
        [
          {
            "ReferencedFrameNumber": 80,
            "ReferencedSOPClassUID": "1.2.840.10008.5.1.4.1.1.4.1",
            "ReferencedSOPInstanceUID": "1.3.12.2.1107.5.2.43.67014.2023100518053388957312345"
          }
        ],
        [
          {
            "ReferencedFrameNumber": 81,
            "ReferencedSOPClassUID": "1.2.840.10008.5.1.4.1.1.4.1",
            "ReferencedSOPInstanceUID": "1.3.12.2.1107.5.2.43.67014.2023100518053388957312345"
          }
        ],
        [
          {
            "ReferencedFrameNumber": 82,
            "ReferencedSOPClassUID": "1.2.840.10008.5.1.4.1.1.4.1",
            "ReferencedSOPInstanceUID": "1.3.12.2.1107.5.2.43.67014.2023100518053388957312345"
          }
        ],
        [
          {
            "ReferencedFrameNumber": 83,
            "ReferencedSOPClassUID": "1.2.840.10008.5.1.4.1.1.4.1",
            "ReferencedSOPInstanceUID": "1.3.12.2.1107.5.2.43.67014.2023100518053388957312345"
          }
        ],
        [
          {
            "ReferencedFrameNumber": 84,
            "ReferencedSOPClassUID": "1.2.840.10008.5.1.4.1.1.4.1",
            "ReferencedSOPInstanceUID": "1.3.12.2.1107.5.2.43.67014.2023100518053388957312345"
          }
        ],
        [
          {
            "ReferencedFrameNumber": 85,
            "ReferencedSOPClassUID": "1.2.840.10008.5.1.4.1.1.4.1",
            "ReferencedSOPInstanceUID": "1.3.12.2.1107.5.2.43.67014.2023100518053388957312345"
          }
        ],
        [
          {
            "ReferencedFrameNumber": 86,
            "ReferencedSOPClassUID": "1.2.840.10008.5.1.4.1.1.4.1",
            "ReferencedSOPInstanceUID": "1.3.12.2.1107.5.2.43.67014.2023100518053388957312345"
          }
        ],
        [
          {
            "ReferencedFrameNumber": 87,
            "ReferencedSOPClassUID": "1.2.840.10008.5.1.4.1.1.4.1",
            "ReferencedSOPInstanceUID": "1.3.12.2.1107.5.2.43.67014.2023100518053388957312345"
          }
        ],
        [
          {
            "ReferencedFrameNumber": 1,
            "ReferencedSOPClassUID": "1.2.840.10008.5.1.4.1.1.4.1",
            "ReferencedSOPInstanceUID": "1.3.12.2.1107.5.2.43.67014.2023100518054037147012488"
