{
  "AcquisitionMatrixPE": 108,
  "AcquisitionTime": "18:01:11.325000",
  "B0FieldIdentifier": "pilot020pepolarb0",
  "BandwidthPerPixelPhaseEncode": 19.73,
  "BaseResolution": 146,
  "DerivedVendorReportedEchoSpacing": 0.000938597,
  "DwellTime": 2.1e-06,
  "EchoTime": 0.09,
  "EchoTrainLength": 48,
  "EffectiveEchoSpacing": 0.000469298,
  "ImageOrientationPatientDICOM": [
    0.99972,
    0.0232755,
    -0.00428647,
    -0.0233851,
    0.943618,
    -0.33021
  ],
  "InPlanePhaseEncodingDirectionDICOM": "ROW",
  "PercentPhaseFOV": 73.9726,
  "PhaseEncodingDirection": "i",
  "PhaseEncodingSteps": 108,
  "PixelBandwidth": 1631,
  "ProcedureStepDescription": "RESEARCH Oscar",
  "ProtocolName": "fmap-epi_acq-b0_dir-RL__6dir_monopolar",
  "ReceiveCoilActiveElements": "HC1-7",
  "ReconMatrixPE": 108,
  "RefLinesPE": 40,
  "RepetitionTime": 3.9,
  "SAR": 0.19238,
  "SeriesDescription": "fmap-epi_acq-b0_dir-RL__6dir_monopolar",
  "SeriesNumber": 8,
  "ShimSetting": [
    8229,
    -5618,
    -6014,
    673,
    -71,
    -284,
    0,
    1
  ],
  "SliceThickness": 1.6,
  "SliceTiming": [
    0, 5.805, 0.1325, 5.9375, 0.265, 6.07, 0.395, 6.2025, 0.5275, 6.335, 0.66, 6.465, 0.7925, 6.5975,
    0.925, 6.73, 1.055, 6.8625, 1.1875, 6.9925, 1.32, 7.125, 1.4525, 7.2575, 1.5825, 7.39, 1.715,
    7.5225, 1.8475, 7.6525, 1.98, 7.785, 2.1125, 7.9175, 2.2425, 8.05, 2.375, 8.18, 2.5075, 8.3125,
    2.64, 8.445, 2.7725, 8.5775, 2.9025, 8.71, 3.035, 8.84, 3.1675, 8.9725, 3.3, 9.105, 3.43, 9.2375,
    3.5625, 9.37, 3.695, 9.5, 3.8275, 9.6325, 3.96, 9.765, 4.09, 9.8975, 4.2225, 10.0275, 4.355, 10.16,
    4.4875, 10.2925, 4.6175, 10.425, 4.75, 10.5575, 4.8825, 10.6875, 5.015, 10.82, 5.1475, 10.9525,
    5.2775, 11.085, 5.41, 11.215, 5.5425, 11.3475, 5.675
  ],
  "SpacingBetweenSlices": 1.6,
  "TotalReadoutTime": 0.0502149,
  "TxRefAmp": 247.631,
  "VendorReportedEchoSpacing": 0.00093,
  "dcmmeta_affine": [
    [-1.5612027645111084, -0.03651910647749901, 0.005799999926239252, 87.0137710571289],
    [-0.036347951740026474, 1.4735915660858154, -0.5289999842643738, -63.89378356933594],
    [-0.0066939229145646095, 0.5156691670417786, 1.5099999904632568, -83.98602294921875],
    [0.0, 0.0, 0.0, 1.0]
  ],
  "dcmmeta_reorient_transform": [
    [0.0, -1.0, 0.0, 145.0],
    [1.0, 0.0, 0.0, 0.0],
    [0.0, 0.0, -1.0, 86.0],
    [0.0, 0.0, 0.0, 1.0]
  ],
  "dcmmeta_shape": [108, 146, 87, 3],
  "global": {
    "const": {
      "AcquisitionMatrix": [0, 146, 108, 0],
      "AngioFlag": "N",
      "BeatRejectionFlag": "N",
      "BitsAllocated": 16,
      "BitsStored": 12,
      "BodyPartExamined": "BRAIN",
      "BurnedInAnnotation": "NO",
      "CardiacNumberOfImages": 1,
      "Columns": 108,
      "ConfidentialityCode": "N",
      "ContentQualification": "PRODUCT",
      "EchoTime": 90.0,
      "EchoTrainLength": 48,
      "FlipAngle": 90.0,
      "HighBit": 11,
      "ImageOrientationPatient": [
        0.99972,
        0.0232755,
        -0.00428647,
        -0.0233851,
        0.943618,
        -0.33021
      ],
      "ImageType": [
        "ORIGINAL",
        "PRIMARY",
        "DIFFUSION",
        "NONE",
        "ND",
        "MFSPLIT"
      ],
      "ImagedNucleus": "1H",
      "ImagingFrequency": 123.248101,
      "InPlanePhaseEncodingDirection": "ROW",
      "LossyImageCompression": "00",
      "MRAcquisitionType": "2D",
      "MagneticFieldStrength": 3.0,
      "Manufacturer": "Siemens Healthineers",
      "ManufacturerModelName": "MAGNETOM Prisma Fit",
      "ModalitiesInStudy": ["MR", "SR"],
      "Modality": "MR",
      "NumberOfAverages": 1.0,
      "NumberOfPhaseEncodingSteps": 108,
      "NumberOfStudyRelatedInstances": 32133,
      "NumberOfTemporalPositions": 3,
      "PercentPhaseFieldOfView": 73.9726,
      "PercentSampling": 100.0,
      "PerformedProcedureStepStartTime": "171829.900000",
      "PhotometricInterpretation": "MONOCHROME2",
      "PixelBandwidth": 1631.0,
      "PixelRepresentation": 0,
      "PixelSpacing": [1.56164, 1.56164],
      "PresentationLUTShape": "IDENTITY",
      "ProtocolName": "fmap-epi_acq-b0_dir-RL__6dir_monopolar",
      "ReceiveCoilName": "HeadNeck_64",
      "RepetitionTime": 3900.0,
      "RescaleIntercept": 0.0,
      "RescaleSlope": 1.0,
      "Rows": 146,
      "SAR": 0.19238039595154,
      "SamplesPerPixel": 1,
      "ScanOptions": ["PFP", "FS", "PER"],
      "ScanningSequence": ["GR", "EP"],
      "SequenceName": "*ep_b0",
      "SequenceVariant": "SK",
      "SeriesDescription": "fmap-epi_acq-b0_dir-RL__6dir_monopolar",
      "SeriesNumber": 8,
      "SeriesTime": "180115",
      "SliceThickness": 1.6,
      "SmallestImagePixelValue": 0,
      "SoftwareVersions": "syngo MR XA30",
      "SpacingBetweenSlices": 1.6,
      "SpecificCharacterSet": "ISO_IR 100",
      "StudyID": "7f552491-f0ae-4c",
      "StudyTime": "171829",
      "TransmitCoilName": "Body"
    },
    "slices": {
      "AcquisitionTime": [
        "180111.325000", "180113.332500", "180111.457500", "180113.465000", "180111.592500",
        "180113.600000", "180111.725000", "180113.732500", "180111.860000", "180113.867500",
        "180111.995000", "180114.000000", "180112.127500", "180114.135000", "180112.262500",
        "180114.267500", "180112.395000", "180114.402500", "180112.530000", "180114.535000",
        "180112.662500", "180114.670000", "180112.797500", "180114.802500", "180112.930000",
        "180114.937500", "180113.065000", "180115.070000", "180113.197500", "180111.325000",
        "180113.332500", "180111.457500", "180113.465000", "180111.592500", "180113.600000",
        "180111.725000", "180113.732500", "180111.860000", "180113.867500", "180111.995000",
        "180114.000000", "180112.127500", "180114.135000", "180112.262500", "180114.267500",
        "180112.395000", "180114.402500", "180112.530000", "180114.535000", "180112.662500",
        "180114.670000", "180112.797500", "180114.802500", "180112.930000", "180114.937500",
        "180113.065000", "180115.070000", "180113.197500", "180111.325000", "180113.332500",
        "180111.457500", "180113.465000", "180111.592500", "180113.600000", "180111.725000",
        "180113.732500", "180111.860000", "180113.867500", "180111.995000", "180114.000000",
        "180112.127500", "180114.135000", "180112.262500", "180114.267500", "180112.395000",
        "180114.402500", "180112.530000", "180114.535000", "180112.662500", "180114.670000",
        "180112.797500", "180114.802500", "180112.930000", "180114.937500", "180113.065000",
        "180115.070000", "180113.197500", "180115.225000", "180117.232500", "180115.357500",
        "180117.365000", "180115.492500", "180117.500000", "180115.625000", "180117.632500",
        "180115.760000", "180117.767500", "180115.895000", "180117.900000", "180116.027500",
        "180118.035000", "180116.162500", "180118.167500", "180116.295000", "180118.302500",
        "180116.430000", "180118.435000", "180116.562500", "180118.570000", "180116.697500",
        "180118.702500", "180116.830000", "180118.837500", "180116.965000", "180118.970000",
        "180117.097500", "180115.225000", "180117.232500", "180115.357500", "180117.365000",
        "180115.492500", "180117.500000", "180115.625000", "180117.632500", "180115.760000",
        "180117.767500", "180115.895000", "180117.900000", "180116.027500", "180118.035000",
        "180116.162500", "180118.167500", "180116.295000", "180118.302500", "180116.430000",
        "180118.435000", "180116.562500", "180118.570000", "180116.697500", "180118.702500",
        "180116.830000", "180118.837500", "180116.965000", "180118.970000", "180117.097500",
        "180115.225000", "180117.232500", "180115.357500", "180117.365000", "180115.492500",
        "180117.500000", "180115.625000", "180117.632500", "180115.760000", "180117.767500",
        "180115.895000", "180117.900000", "180116.027500", "180118.035000", "180116.162500",
        "180118.167500", "180116.295000", "180118.302500", "180116.430000", "180118.435000",
        "180116.562500", "180118.570000", "180116.697500", "180118.702500", "180116.830000",
        "180118.837500", "180116.965000", "180118.970000", "180117.097500", "180119.125000",
        "180121.132500", "180119.257500", "180121.265000", "180119.392500", "180121.400000",
        "180119.525000", "180121.532500", "180119.660000", "180121.667500", "180119.795000",
        "180121.800000", "180119.927500", "180121.935000", "180120.062500", "180122.067500",
        "180120.195000", "180122.202500", "180120.330000", "180122.335000", "180120.462500",
        "180122.470000", "180120.597500", "180122.602500", "180120.730000", "180122.737500",
        "180120.865000", "180122.870000", "180120.997500", "180119.125000", "180121.132500",
        "180119.257500", "180121.265000", "180119.392500", "180121.400000", "180119.525000",
        "180121.532500", "180119.660000", "180121.667500", "180119.795000", "180121.800000",
        "180119.927500", "180121.935000", "180120.062500", "180122.067500", "180120.195000",
        "180122.202500", "180120.330000", "180122.335000", "180120.462500", "180122.470000",
        "180120.597500", "180122.602500", "180120.730000", "180122.737500", "180120.865000",
        "180122.870000", "180120.997500", "180119.125000", "180121.132500", "180119.257500",
        "180121.265000", "180119.392500", "180121.400000", "180119.525000", "180121.532500",
        "180119.660000", "180121.667500", "180119.795000", "180121.800000", "180119.927500",
        "180121.935000", "180120.062500", "180122.067500", "180120.195000", "180122.202500",
        "180120.330000", "180122.335000", "180120.462500", "180122.470000", "180120.597500",
        "180122.602500", "180120.730000", "180122.737500", "180120.865000", "180122.870000",
        "180120.997500"
      ],
      "ConversionSourceAttributesSequence": [
        [
          {
            "ReferencedFrameNumber": 1,
            "ReferencedSOPClassUID": "1.2.840.10008.5.1.4.1.1.4.1",
            "ReferencedSOPInstanceUID": "1.3.12.2.1107.5.2.43.67014.2023100518011622893809142"
          }
        ],
        [
          {
            "ReferencedFrameNumber": 2,
            "ReferencedSOPClassUID": "1.2.840.10008.5.1.4.1.1.4.1",
            "ReferencedSOPInstanceUID": "1.3.12.2.1107.5.2.43.67014.2023100518011622893809142"
          }
        ],
        [
          {
            "ReferencedFrameNumber": 3,
            "ReferencedSOPClassUID": "1.2.840.10008.5.1.4.1.1.4.1",
            "ReferencedSOPInstanceUID": "1.3.12.2.1107.5.2.43.67014.2023100518011622893809142"
          }
        ],
        [
          {
            "ReferencedFrameNumber": 4,
            "ReferencedSOPClassUID": "1.2.840.10008.5.1.4.1.1.4.1",
            "ReferencedSOPInstanceUID": "1.3.12.2.1107.5.2.43.67014.2023100518011622893809142"
          }
        ],
        [
          {
            "ReferencedFrameNumber": 5,
            "ReferencedSOPClassUID": "1.2.840.10008.5.1.4.1.1.4.1",
            "ReferencedSOPInstanceUID": "1.3.12.2.1107.5.2.43.67014.2023100518011622893809142"
          }
        ],
        [
          {
            "ReferencedFrameNumber": 6,
            "ReferencedSOPClassUID": "1.2.840.10008.5.1.4.1.1.4.1",
            "ReferencedSOPInstanceUID": "1.3.12.2.1107.5.2.43.67014.2023100518011622893809142"
          }
        ],
        [
          {
            "ReferencedFrameNumber": 7,
            "ReferencedSOPClassUID": "1.2.840.10008.5.1.4.1.1.4.1",
            "ReferencedSOPInstanceUID": "1.3.12.2.1107.5.2.43.67014.2023100518011622893809142"
          }
        ],
        [
          {
            "ReferencedFrameNumber": 8,
            "ReferencedSOPClassUID": "1.2.840.10008.5.1.4.1.1.4.1",
            "ReferencedSOPInstanceUID": "1.3.12.2.1107.5.2.43.67014.2023100518011622893809142"
          }
        ],
        [
          {
            "ReferencedFrameNumber": 9,
            "ReferencedSOPClassUID": "1.2.840.10008.5.1.4.1.1.4.1",
            "ReferencedSOPInstanceUID": "1.3.12.2.1107.5.2.43.67014.2023100518011622893809142"
          }
        ],
        [
          {
            "ReferencedFrameNumber": 10,
            "ReferencedSOPClassUID": "1.2.840.10008.5.1.4.1.1.4.1",
            "ReferencedSOPInstanceUID": "1.3.12.2.1107.5.2.43.67014.2023100518011622893809142"
          }
        ],
        [
          {
            "ReferencedFrameNumber": 11,
            "ReferencedSOPClassUID": "1.2.840.10008.5.1.4.1.1.4.1",
            "ReferencedSOPInstanceUID": "1.3.12.2.1107.5.2.43.67014.2023100518011622893809142"
          }
        ],
        [
          {
            "ReferencedFrameNumber": 12,
            "ReferencedSOPClassUID": "1.2.840.10008.5.1.4.1.1.4.1",
            "ReferencedSOPInstanceUID": "1.3.12.2.1107.5.2.43.67014.2023100518011622893809142"
          }
        ],
        [
          {
            "ReferencedFrameNumber": 13,
            "ReferencedSOPClassUID": "1.2.840.10008.5.1.4.1.1.4.1",
            "ReferencedSOPInstanceUID": "1.3.12.2.1107.5.2.43.67014.2023100518011622893809142"
          }
        ],
        [
          {
            "ReferencedFrameNumber": 14,
            "ReferencedSOPClassUID": "1.2.840.10008.5.1.4.1.1.4.1",
            "ReferencedSOPInstanceUID": "1.3.12.2.1107.5.2.43.67014.2023100518011622893809142"
          }
        ],
        [
          {
            "ReferencedFrameNumber": 15,
            "ReferencedSOPClassUID": "1.2.840.10008.5.1.4.1.1.4.1",
            "ReferencedSOPInstanceUID": "1.3.12.2.1107.5.2.43.67014.2023100518011622893809142"
          }
        ],
        [
          {
            "ReferencedFrameNumber": 16,
            "ReferencedSOPClassUID": "1.2.840.10008.5.1.4.1.1.4.1",
            "ReferencedSOPInstanceUID": "1.3.12.2.1107.5.2.43.67014.2023100518011622893809142"
          }
        ],
        [
          {
            "ReferencedFrameNumber": 17,
            "ReferencedSOPClassUID": "1.2.840.10008.5.1.4.1.1.4.1",
            "ReferencedSOPInstanceUID": "1.3.12.2.1107.5.2.43.67014.2023100518011622893809142"
          }
        ],
        [
          {
            "ReferencedFrameNumber": 18,
            "ReferencedSOPClassUID": "1.2.840.10008.5.1.4.1.1.4.1",
            "ReferencedSOPInstanceUID": "1.3.12.2.1107.5.2.43.67014.2023100518011622893809142"
          }
        ],
        [
          {
            "ReferencedFrameNumber": 19,
            "ReferencedSOPClassUID": "1.2.840.10008.5.1.4.1.1.4.1",
            "ReferencedSOPInstanceUID": "1.3.12.2.1107.5.2.43.67014.2023100518011622893809142"
          }
        ],
        [
          {
            "ReferencedFrameNumber": 20,
            "ReferencedSOPClassUID": "1.2.840.10008.5.1.4.1.1.4.1",
            "ReferencedSOPInstanceUID": "1.3.12.2.1107.5.2.43.67014.2023100518011622893809142"
          }
        ],
        [
          {
            "ReferencedFrameNumber": 21,
            "ReferencedSOPClassUID": "1.2.840.10008.5.1.4.1.1.4.1",
            "ReferencedSOPInstanceUID": "1.3.12.2.1107.5.2.43.67014.2023100518011622893809142"
          }
        ],
        [
          {
            "ReferencedFrameNumber": 22,
            "ReferencedSOPClassUID": "1.2.840.10008.5.1.4.1.1.4.1",
            "ReferencedSOPInstanceUID": "1.3.12.2.1107.5.2.43.67014.2023100518011622893809142"
          }
        ],
        [
          {
            "ReferencedFrameNumber": 23,
            "ReferencedSOPClassUID": "1.2.840.10008.5.1.4.1.1.4.1",
            "ReferencedSOPInstanceUID": "1.3.12.2.1107.5.2.43.67014.2023100518011622893809142"
          }
        ],
        [
          {
            "ReferencedFrameNumber": 24,
            "ReferencedSOPClassUID": "1.2.840.10008.5.1.4.1.1.4.1",
            "ReferencedSOPInstanceUID": "1.3.12.2.1107.5.2.43.67014.2023100518011622893809142"
          }
        ],
        [
          {
            "ReferencedFrameNumber": 25,
            "ReferencedSOPClassUID": "1.2.840.10008.5.1.4.1.1.4.1",
            "ReferencedSOPInstanceUID": "1.3.12.2.1107.5.2.43.67014.2023100518011622893809142"
          }
        ],
        [
          {
            "ReferencedFrameNumber": 26,
            "ReferencedSOPClassUID": "1.2.840.10008.5.1.4.1.1.4.1",
            "ReferencedSOPInstanceUID": "1.3.12.2.1107.5.2.43.67014.2023100518011622893809142"
          }
        ],
        [
          {
            "ReferencedFrameNumber": 27,
            "ReferencedSOPClassUID": "1.2.840.10008.5.1.4.1.1.4.1",
            "ReferencedSOPInstanceUID": "1.3.12.2.1107.5.2.43.67014.2023100518011622893809142"
          }
        ],
        [
          {
            "ReferencedFrameNumber": 28,
            "ReferencedSOPClassUID": "1.2.840.10008.5.1.4.1.1.4.1",
            "ReferencedSOPInstanceUID": "1.3.12.2.1107.5.2.43.67014.2023100518011622893809142"
          }
        ],
        [
          {
            "ReferencedFrameNumber": 29,
            "ReferencedSOPClassUID": "1.2.840.10008.5.1.4.1.1.4.1",
            "ReferencedSOPInstanceUID": "1.3.12.2.1107.5.2.43.67014.2023100518011622893809142"
          }
        ],
        [
          {
            "ReferencedFrameNumber": 30,
            "ReferencedSOPClassUID": "1.2.840.10008.5.1.4.1.1.4.1",
            "ReferencedSOPInstanceUID": "1.3.12.2.1107.5.2.43.67014.2023100518011622893809142"
          }
        ],
        [
          {
            "ReferencedFrameNumber": 31,
            "ReferencedSOPClassUID": "1.2.840.10008.5.1.4.1.1.4.1",
            "ReferencedSOPInstanceUID": "1.3.12.2.1107.5.2.43.67014.2023100518011622893809142"
          }
        ],
        [
          {
            "ReferencedFrameNumber": 32,
            "ReferencedSOPClassUID": "1.2.840.10008.5.1.4.1.1.4.1",
            "ReferencedSOPInstanceUID": "1.3.12.2.1107.5.2.43.67014.2023100518011622893809142"
          }
        ],
        [
          {
            "ReferencedFrameNumber": 33,
            "ReferencedSOPClassUID": "1.2.840.10008.5.1.4.1.1.4.1",
            "ReferencedSOPInstanceUID": "1.3.12.2.1107.5.2.43.67014.2023100518011622893809142"
          }
        ],
        [
          {
            "ReferencedFrameNumber": 34,
            "ReferencedSOPClassUID": "1.2.840.10008.5.1.4.1.1.4.1",
            "ReferencedSOPInstanceUID": "1.3.12.2.1107.5.2.43.67014.2023100518011622893809142"
          }
        ],
        [
          {
            "ReferencedFrameNumber": 35,
            "ReferencedSOPClassUID": "1.2.840.10008.5.1.4.1.1.4.1",
            "ReferencedSOPInstanceUID": "1.3.12.2.1107.5.2.43.67014.2023100518011622893809142"
          }
        ],
        [
          {
            "ReferencedFrameNumber": 36,
            "ReferencedSOPClassUID": "1.2.840.10008.5.1.4.1.1.4.1",
            "ReferencedSOPInstanceUID": "1.3.12.2.1107.5.2.43.67014.2023100518011622893809142"
          }
        ],
        [
          {
            "ReferencedFrameNumber": 37,
            "ReferencedSOPClassUID": "1.2.840.10008.5.1.4.1.1.4.1",
            "ReferencedSOPInstanceUID": "1.3.12.2.1107.5.2.43.67014.2023100518011622893809142"
          }
        ],
        [
          {
            "ReferencedFrameNumber": 38,
            "ReferencedSOPClassUID": "1.2.840.10008.5.1.4.1.1.4.1",
            "ReferencedSOPInstanceUID": "1.3.12.2.1107.5.2.43.67014.2023100518011622893809142"
          }
        ],
        [
          {
            "ReferencedFrameNumber": 39,
            "ReferencedSOPClassUID": "1.2.840.10008.5.1.4.1.1.4.1",
            "ReferencedSOPInstanceUID": "1.3.12.2.1107.5.2.43.67014.2023100518011622893809142"
          }
        ],
        [
          {
            "ReferencedFrameNumber": 40,
            "ReferencedSOPClassUID": "1.2.840.10008.5.1.4.1.1.4.1",
            "ReferencedSOPInstanceUID": "1.3.12.2.1107.5.2.43.67014.2023100518011622893809142"
          }
        ],
        [
          {
            "ReferencedFrameNumber": 41,
            "ReferencedSOPClassUID": "1.2.840.10008.5.1.4.1.1.4.1",
            "ReferencedSOPInstanceUID": "1.3.12.2.1107.5.2.43.67014.2023100518011622893809142"
          }
        ],
        [
          {
            "ReferencedFrameNumber": 42,
            "ReferencedSOPClassUID": "1.2.840.10008.5.1.4.1.1.4.1",
            "ReferencedSOPInstanceUID": "1.3.12.2.1107.5.2.43.67014.2023100518011622893809142"
          }
        ],
        [
          {
            "ReferencedFrameNumber": 43,
            "ReferencedSOPClassUID": "1.2.840.10008.5.1.4.1.1.4.1",
            "ReferencedSOPInstanceUID": "1.3.12.2.1107.5.2.43.67014.2023100518011622893809142"
          }
        ],
        [
          {
            "ReferencedFrameNumber": 44,
            "ReferencedSOPClassUID": "1.2.840.10008.5.1.4.1.1.4.1",
            "ReferencedSOPInstanceUID": "1.3.12.2.1107.5.2.43.67014.2023100518011622893809142"
          }
        ],
        [
          {
            "ReferencedFrameNumber": 45,
            "ReferencedSOPClassUID": "1.2.840.10008.5.1.4.1.1.4.1",
            "ReferencedSOPInstanceUID": "1.3.12.2.1107.5.2.43.67014.2023100518011622893809142"
          }
        ],
        [
          {
            "ReferencedFrameNumber": 46,
            "ReferencedSOPClassUID": "1.2.840.10008.5.1.4.1.1.4.1",
            "ReferencedSOPInstanceUID": "1.3.12.2.1107.5.2.43.67014.2023100518011622893809142"
          }
        ],
        [
          {
            "ReferencedFrameNumber": 47,
            "ReferencedSOPClassUID": "1.2.840.10008.5.1.4.1.1.4.1",
            "ReferencedSOPInstanceUID": "1.3.12.2.1107.5.2.43.67014.2023100518011622893809142"
          }
        ],
        [
          {
            "ReferencedFrameNumber": 48,
            "ReferencedSOPClassUID": "1.2.840.10008.5.1.4.1.1.4.1",
            "ReferencedSOPInstanceUID": "1.3.12.2.1107.5.2.43.67014.2023100518011622893809142"
          }
        ],
        [
          {
            "ReferencedFrameNumber": 49,
            "ReferencedSOPClassUID": "1.2.840.10008.5.1.4.1.1.4.1",
            "ReferencedSOPInstanceUID": "1.3.12.2.1107.5.2.43.67014.2023100518011622893809142"
          }
        ],
        [
          {
            "ReferencedFrameNumber": 50,
            "ReferencedSOPClassUID": "1.2.840.10008.5.1.4.1.1.4.1",
            "ReferencedSOPInstanceUID": "1.3.12.2.1107.5.2.43.67014.2023100518011622893809142"
          }
        ],
        [
          {
            "ReferencedFrameNumber": 51,
            "ReferencedSOPClassUID": "1.2.840.10008.5.1.4.1.1.4.1",
            "ReferencedSOPInstanceUID": "1.3.12.2.1107.5.2.43.67014.2023100518011622893809142"
          }
        ],
        [
          {
            "ReferencedFrameNumber": 52,
            "ReferencedSOPClassUID": "1.2.840.10008.5.1.4.1.1.4.1",
            "ReferencedSOPInstanceUID": "1.3.12.2.1107.5.2.43.67014.2023100518011622893809142"
          }
        ],
        [
          {
            "ReferencedFrameNumber": 53,
            "ReferencedSOPClassUID": "1.2.840.10008.5.1.4.1.1.4.1",
            "ReferencedSOPInstanceUID": "1.3.12.2.1107.5.2.43.67014.2023100518011622893809142"
          }
        ],
        [
          {
            "ReferencedFrameNumber": 54,
            "ReferencedSOPClassUID": "1.2.840.10008.5.1.4.1.1.4.1",
            "ReferencedSOPInstanceUID": "1.3.12.2.1107.5.2.43.67014.2023100518011622893809142"
          }
        ],
        [
          {
            "ReferencedFrameNumber": 55,
            "ReferencedSOPClassUID": "1.2.840.10008.5.1.4.1.1.4.1",
            "ReferencedSOPInstanceUID": "1.3.12.2.1107.5.2.43.67014.2023100518011622893809142"
          }
        ],
        [
          {
            "ReferencedFrameNumber": 56,
            "ReferencedSOPClassUID": "1.2.840.10008.5.1.4.1.1.4.1",
            "ReferencedSOPInstanceUID": "1.3.12.2.1107.5.2.43.67014.2023100518011622893809142"
          }
        ],
        [
          {
            "ReferencedFrameNumber": 57,
            "ReferencedSOPClassUID": "1.2.840.10008.5.1.4.1.1.4.1",
            "ReferencedSOPInstanceUID": "1.3.12.2.1107.5.2.43.67014.2023100518011622893809142"
          }
        ],
        [
          {
            "ReferencedFrameNumber": 58,
            "ReferencedSOPClassUID": "1.2.840.10008.5.1.4.1.1.4.1",
            "ReferencedSOPInstanceUID": "1.3.12.2.1107.5.2.43.67014.2023100518011622893809142"
          }
        ],
        [
          {
            "ReferencedFrameNumber": 59,
            "ReferencedSOPClassUID": "1.2.840.10008.5.1.4.1.1.4.1",
            "ReferencedSOPInstanceUID": "1.3.12.2.1107.5.2.43.67014.2023100518011622893809142"
          }
        ],
        [
          {
            "ReferencedFrameNumber": 60,
            "ReferencedSOPClassUID": "1.2.840.10008.5.1.4.1.1.4.1",
            "ReferencedSOPInstanceUID": "1.3.12.2.1107.5.2.43.67014.2023100518011622893809142"
          }
        ],
        [
          {
            "ReferencedFrameNumber": 61,
            "ReferencedSOPClassUID": "1.2.840.10008.5.1.4.1.1.4.1",
            "ReferencedSOPInstanceUID": "1.3.12.2.1107.5.2.43.67014.2023100518011622893809142"
          }
        ],
        [
          {
            "ReferencedFrameNumber": 62,
            "ReferencedSOPClassUID": "1.2.840.10008.5.1.4.1.1.4.1",
            "ReferencedSOPInstanceUID": "1.3.12.2.1107.5.2.43.67014.2023100518011622893809142"
          }
        ],
        [
          {
            "ReferencedFrameNumber": 63,
            "ReferencedSOPClassUID": "1.2.840.10008.5.1.4.1.1.4.1",
            "ReferencedSOPInstanceUID": "1.3.12.2.1107.5.2.43.67014.2023100518011622893809142"
          }
        ],
        [
          {
            "ReferencedFrameNumber": 64,
            "ReferencedSOPClassUID": "1.2.840.10008.5.1.4.1.1.4.1",
            "ReferencedSOPInstanceUID": "1.3.12.2.1107.5.2.43.67014.2023100518011622893809142"
          }
        ],
        [
          {
            "ReferencedFrameNumber": 65,
            "ReferencedSOPClassUID": "1.2.840.10008.5.1.4.1.1.4.1",
            "ReferencedSOPInstanceUID": "1.3.12.2.1107.5.2.43.67014.2023100518011622893809142"
          }
        ],
        [
          {
            "ReferencedFrameNumber": 66,
            "ReferencedSOPClassUID": "1.2.840.10008.5.1.4.1.1.4.1",
            "ReferencedSOPInstanceUID": "1.3.12.2.1107.5.2.43.67014.2023100518011622893809142"
          }
        ],
        [
          {
            "ReferencedFrameNumber": 67,
            "ReferencedSOPClassUID": "1.2.840.10008.5.1.4.1.1.4.1",
            "ReferencedSOPInstanceUID": "1.3.12.2.1107.5.2.43.67014.2023100518011622893809142"
          }
        ],
        [
          {
            "ReferencedFrameNumber": 68,
            "ReferencedSOPClassUID": "1.2.840.10008.5.1.4.1.1.4.1",
            "ReferencedSOPInstanceUID": "1.3.12.2.1107.5.2.43.67014.2023100518011622893809142"
          }
        ],
        [
          {
            "ReferencedFrameNumber": 69,
            "ReferencedSOPClassUID": "1.2.840.10008.5.1.4.1.1.4.1",
            "ReferencedSOPInstanceUID": "1.3.12.2.1107.5.2.43.67014.2023100518011622893809142"
          }
        ],
        [
          {
            "ReferencedFrameNumber": 70,
            "ReferencedSOPClassUID": "1.2.840.10008.5.1.4.1.1.4.1",
            "ReferencedSOPInstanceUID": "1.3.12.2.1107.5.2.43.67014.2023100518011622893809142"
          }
        ],
        [
          {
            "ReferencedFrameNumber": 71,
            "ReferencedSOPClassUID": "1.2.840.10008.5.1.4.1.1.4.1",
            "ReferencedSOPInstanceUID": "1.3.12.2.1107.5.2.43.67014.2023100518011622893809142"
          }
        ],
        [
          {
            "ReferencedFrameNumber": 72,
            "ReferencedSOPClassUID": "1.2.840.10008.5.1.4.1.1.4.1",
            "ReferencedSOPInstanceUID": "1.3.12.2.1107.5.2.43.67014.2023100518011622893809142"
          }
        ],
        [
          {
            "ReferencedFrameNumber": 73,
            "ReferencedSOPClassUID": "1.2.840.10008.5.1.4.1.1.4.1",
            "ReferencedSOPInstanceUID": "1.3.12.2.1107.5.2.43.67014.2023100518011622893809142"
          }
        ],
        [
          {
            "ReferencedFrameNumber": 74,
            "ReferencedSOPClassUID": "1.2.840.10008.5.1.4.1.1.4.1",
            "ReferencedSOPInstanceUID": "1.3.12.2.1107.5.2.43.67014.2023100518011622893809142"
          }
        ],
        [
          {
            "ReferencedFrameNumber": 75,
            "ReferencedSOPClassUID": "1.2.840.10008.5.1.4.1.1.4.1",
            "ReferencedSOPInstanceUID": "1.3.12.2.1107.5.2.43.67014.2023100518011622893809142"
          }
        ],
        [
          {
            "ReferencedFrameNumber": 76,
            "ReferencedSOPClassUID": "1.2.840.10008.5.1.4.1.1.4.1",
            "ReferencedSOPInstanceUID": "1.3.12.2.1107.5.2.43.67014.2023100518011622893809142"
          }
        ],
        [
          {
            "ReferencedFrameNumber": 77,
            "ReferencedSOPClassUID": "1.2.840.10008.5.1.4.1.1.4.1",
            "ReferencedSOPInstanceUID": "1.3.12.2.1107.5.2.43.67014.2023100518011622893809142"
          }
        ],
        [
          {
            "ReferencedFrameNumber": 78,
            "ReferencedSOPClassUID": "1.2.840.10008.5.1.4.1.1.4.1",
            "ReferencedSOPInstanceUID": "1.3.12.2.1107.5.2.43.67014.2023100518011622893809142"
          }
        ],
        [
          {
            "ReferencedFrameNumber": 79,
            "ReferencedSOPClassUID": "1.2.840.10008.5.1.4.1.1.4.1",
            "ReferencedSOPInstanceUID": "1.3.12.2.1107.5.2.43.67014.2023100518011622893809142"
          }
        ],
        [
          {
            "ReferencedFrameNumber": 80,
            "ReferencedSOPClassUID": "1.2.840.10008.5.1.4.1.1.4.1",
            "ReferencedSOPInstanceUID": "1.3.12.2.1107.5.2.43.67014.2023100518011622893809142"
          }
        ],
        [
          {
            "ReferencedFrameNumber": 81,
            "ReferencedSOPClassUID": "1.2.840.10008.5.1.4.1.1.4.1",
            "ReferencedSOPInstanceUID": "1.3.12.2.1107.5.2.43.67014.2023100518011622893809142"
          }
        ],
