{
  "AcquisitionMatrixPE": 146,
  "AcquisitionTime": "18:02:43.260000",
  "B0FieldIdentifier": "pilot020pepolarb0",
  "BandwidthPerPixelPhaseEncode": 19.569,
  "BaseResolution": 146,
  "DerivedVendorReportedEchoSpacing": 0.000700017,
  "DwellTime": 2.1e-06,
  "EchoTime": 0.09,
  "EchoTrainLength": 64,
  "EffectiveEchoSpacing": 0.000350008,
  "ImageOrientationPatientDICOM": [
    0.999724,
    0.0231107,
    -0.00422881,
    -0.0232106,
    0.943621,
    -0.330212
  ],
  "InPlanePhaseEncodingDirectionDICOM": "COL",
  "PercentPhaseFOV": 100,
  "PhaseEncodingDirection": "j",
  "PhaseEncodingSteps": 146,
  "PixelBandwidth": 1631,
  "ProcedureStepDescription": "RESEARCH Oscar",
  "ProtocolName": "fmap-epi_acq-b0_dir-PA__6dir_monopolar",
  "ReceiveCoilActiveElements": "HC1-7",
  "ReconMatrixPE": 146,
  "RefLinesPE": 54,
  "RepetitionTime": 3.9,
  "SAR": 0.19265,
  "SeriesDescription": "fmap-epi_acq-b0_dir-PA__6dir_monopolar",
  "SeriesNumber": 10,
  "ShimSetting": [
    8229,
    -5617,
    -6015,
    666,
    -71,
    -277,
    3,
    1
  ],
  "SliceThickness": 1.6,
  "SliceTiming": [
    0, 5.7925, 0.13, 5.9225, 0.2625, 6.055, 0.395, 6.185, 0.525, 6.3175, 0.6575, 6.45, 0.79, 6.58, 0.92,
    6.7125, 1.0525, 6.845, 1.185, 6.975, 1.315, 7.1075, 1.4475, 7.24, 1.58, 7.37, 1.71, 7.5025, 1.8425,
    7.635, 1.9725, 7.765, 2.105, 7.8975, 2.2375, 8.03, 2.3675, 8.16, 2.5, 8.2925, 2.6325, 8.425, 2.7625,
    8.555, 2.895, 8.6875, 3.0275, 8.82, 3.1575, 8.95, 3.29, 9.0825, 3.4225, 9.215, 3.5525, 9.345, 3.685,
    9.4775, 3.8175, 9.61, 3.9475, 9.74, 4.08, 9.8725, 4.2125, 10.005, 4.3425, 10.135, 4.475, 10.2675,
    4.6075, 10.3975, 4.7375, 10.53, 4.87, 10.6625, 5.0025, 10.7925, 5.1325, 10.925, 5.265, 11.0575,
    5.3975, 11.1875, 5.5275, 11.32, 5.66
  ],
  "SpacingBetweenSlices": 1.6,
  "TotalReadoutTime": 0.0507512,
  "TxRefAmp": 247.631,
  "VendorReportedEchoSpacing": 0.0007,
  "dcmmeta_affine": [
    [-1.6022976636886597, -0.037200555205345154, 0.006000000052154064, 119.72608184814453],
    [-0.03704044222831726, 1.5123791694641113, -0.527999997138977, -66.62596893310547],
    [-0.0067776828072965145, 0.5292440056800842, 1.5099999904632568, -84.79537963867188],
    [0.0, 0.0, 0.0, 1.0]
  ],
  "dcmmeta_reorient_transform": [
    [0.0, -1.0, 0.0, 145.0],
    [1.0, 0.0, 0.0, 0.0],
    [0.0, 0.0, -1.0, 86.0],
    [0.0, 0.0, 0.0, 1.0]
  ],
  "dcmmeta_shape": [146, 146, 87, 3],
  "global": {
    "const": {
      "AcquisitionMatrix": [146, 0, 0, 146],
      "AngioFlag": "N",
      "BeatRejectionFlag": "N",
      "BitsAllocated": 16,
      "BitsStored": 12,
      "BodyPartExamined": "BRAIN",
      "BurnedInAnnotation": "NO",
      "CardiacNumberOfImages": 1,
      "Columns": 146,
      "ConfidentialityCode": "N",
      "ContentQualification": "PRODUCT",
      "EchoTime": 90.0,
      "EchoTrainLength": 64,
      "FlipAngle": 90.0,
      "HighBit": 11,
      "ImageOrientationPatient": [
        0.999724,
        0.0231107,
        -0.00422881,
        -0.0232106,
        0.943621,
        -0.330212
      ],
      "ImageType": [
        "ORIGINAL",
        "PRIMARY",
        "DIFFUSION",
        "NONE",
        "ND",
        "MFSPLIT"
      ],
      "ImagedNucleus": "1H",
      "ImagingFrequency": 123.248102,
      "InPlanePhaseEncodingDirection": "COL",
      "LargestImagePixelValue": 4095,
      "LossyImageCompression": "00",
      "MRAcquisitionType": "2D",
      "MagneticFieldStrength": 3.0,
      "Manufacturer": "Siemens Healthineers",
      "ManufacturerModelName": "MAGNETOM Prisma Fit",
      "ModalitiesInStudy": ["MR", "SR"],
      "Modality": "MR",
      "NumberOfAverages": 1.0,
      "NumberOfPhaseEncodingSteps": 146,
      "NumberOfStudyRelatedInstances": 32133,
      "NumberOfTemporalPositions": 3,
      "PercentPhaseFieldOfView": 100.0,
      "PercentSampling": 100.0,
      "PerformedProcedureStepStartTime": "171829.900000",
      "PhotometricInterpretation": "MONOCHROME2",
      "PixelBandwidth": 1631.0,
      "PixelRepresentation": 0,
      "PixelSpacing": [1.60274, 1.60274],
      "PresentationLUTShape": "IDENTITY",
      "ProtocolName": "fmap-epi_acq-b0_dir-PA__6dir_monopolar",
      "ReceiveCoilName": "HeadNeck_64",
      "RepetitionTime": 3900.0,
      "RescaleIntercept": 0.0,
      "RescaleSlope": 1.0,
      "Rows": 146,
      "SAR": 0.19264982005839,
      "SamplesPerPixel": 1,
      "ScanOptions": ["PFP", "FS", "PER"],
      "ScanningSequence": ["GR", "EP"],
      "SequenceName": "*ep_b0",
      "SequenceVariant": "SK",
      "SeriesDescription": "fmap-epi_acq-b0_dir-PA__6dir_monopolar",
      "SeriesNumber": 10,
      "SeriesTime": "180248",
      "SliceThickness": 1.6,
      "SmallestImagePixelValue": 0,
      "SoftwareVersions": "syngo MR XA30",
      "SpacingBetweenSlices": 1.6,
      "SpecificCharacterSet": "ISO_IR 100",
      "StudyID": "7f552491-f0ae-4c",
      "StudyTime": "171829",
      "TransmitCoilName": "Body"
    },
    "slices": {
      "AcquisitionTime": [
        "180243.260000", "180245.267500", "180243.392500", "180245.400000", "180243.527500",
        "180245.535000", "180243.660000", "180245.667500", "180243.795000", "180245.802500",
        "180243.927500", "180245.935000", "180244.062500", "180246.070000", "180244.195000",
        "180246.202500", "180244.330000", "180246.337500", "180244.462500", "180246.470000",
        "180244.597500", "180246.605000", "180244.732500", "180246.737500", "180244.865000",
        "180246.872500", "180245.000000", "180247.005000", "180245.132500", "180243.260000",
        "180245.267500", "180243.392500", "180245.400000", "180243.527500", "180245.535000",
        "180243.660000", "180245.667500", "180243.795000", "180245.802500", "180243.927500",
        "180245.935000", "180244.062500", "180246.070000", "180244.195000", "180246.202500",
        "180244.330000", "180246.337500", "180244.462500", "180246.470000", "180244.597500",
        "180246.605000", "180244.732500", "180246.737500", "180244.865000", "180246.872500",
        "180245.000000", "180247.005000", "180245.132500", "180243.260000", "180245.267500",
        "180243.392500", "180245.400000", "180243.527500", "180245.535000", "180243.660000",
        "180245.667500", "180243.795000", "180245.802500", "180243.927500", "180245.935000",
        "180244.062500", "180246.070000", "180244.195000", "180246.202500", "180244.330000",
        "180246.337500", "180244.462500", "180246.470000", "180244.597500", "180246.605000",
        "180244.732500", "180246.737500", "180244.865000", "180246.872500", "180245.000000",
        "180247.005000", "180245.132500", "180247.160000", "180249.167500", "180247.292500",
        "180249.300000", "180247.427500", "180249.435000", "180247.560000", "180249.567500",
        "180247.695000", "180249.702500", "180247.827500", "180249.835000", "180247.962500",
        "180249.970000", "180248.095000", "180250.102500", "180248.230000", "180250.237500",
        "180248.362500", "180250.370000", "180248.497500", "180250.505000", "180248.632500",
        "180250.637500", "180248.765000", "180250.772500", "180248.900000", "180250.905000",
        "180249.032500", "180247.160000", "180249.167500", "180247.292500", "180249.300000",
        "180247.427500", "180249.435000", "180247.560000", "180249.567500", "180247.695000",
        "180249.702500", "180247.827500", "180249.835000", "180247.962500", "180249.970000",
        "180248.095000", "180250.102500", "180248.230000", "180250.237500", "180248.362500",
        "180250.370000", "180248.497500", "180250.505000", "180248.632500", "180250.637500",
        "180248.765000", "180250.772500", "180248.900000", "180250.905000", "180249.032500",
        "180247.160000", "180249.167500", "180247.292500", "180249.300000", "180247.427500",
        "180249.435000", "180247.560000", "180249.567500", "180247.695000", "180249.702500",
        "180247.827500", "180249.835000", "180247.962500", "180249.970000", "180248.095000",
        "180250.102500", "180248.230000", "180250.237500", "180248.362500", "180250.370000",
        "180248.497500", "180250.505000", "180248.632500", "180250.637500", "180248.765000",
        "180250.772500", "180248.900000", "180250.905000", "180249.032500", "180251.060000",
        "180253.067500", "180251.192500", "180253.200000", "180251.327500", "180253.335000",
        "180251.460000", "180253.467500", "180251.595000", "180253.602500", "180251.727500",
        "180253.735000", "180251.862500", "180253.870000", "180251.995000", "180254.002500",
        "180252.130000", "180254.137500", "180252.262500", "180254.270000", "180252.397500",
        "180254.405000", "180252.532500", "180254.537500", "180252.665000", "180254.672500",
        "180252.800000", "180254.805000", "180252.932500", "180251.060000", "180253.067500",
        "180251.192500", "180253.200000", "180251.327500", "180253.335000", "180251.460000",
        "180253.467500", "180251.595000", "180253.602500", "180251.727500", "180253.735000",
        "180251.862500", "180253.870000", "180251.995000", "180254.002500", "180252.130000",
        "180254.137500", "180252.262500", "180254.270000", "180252.397500", "180254.405000",
        "180252.532500", "180254.537500", "180252.665000", "180254.672500", "180252.800000",
        "180254.805000", "180252.932500", "180251.060000", "180253.067500", "180251.192500",
        "180253.200000", "180251.327500", "180253.335000", "180251.460000", "180253.467500",
        "180251.595000", "180253.602500", "180251.727500", "180253.735000", "180251.862500",
        "180253.870000", "180251.995000", "180254.002500", "180252.130000", "180254.137500",
        "180252.262500", "180254.270000", "180252.397500", "180254.405000", "180252.532500",
        "180254.537500", "180252.665000", "180254.672500", "180252.800000", "180254.805000",
        "180252.932500"
      ],
      "ConversionSourceAttributesSequence": [
        [
          {
            "ReferencedFrameNumber": 1,
            "ReferencedSOPClassUID": "1.2.840.10008.5.1.4.1.1.4.1",
            "ReferencedSOPInstanceUID": "1.3.12.2.1107.5.2.43.67014.2023100518024855688911284"
          }
        ],
        [
          {
            "ReferencedFrameNumber": 2,
            "ReferencedSOPClassUID": "1.2.840.10008.5.1.4.1.1.4.1",
            "ReferencedSOPInstanceUID": "1.3.12.2.1107.5.2.43.67014.2023100518024855688911284"
          }
        ],
        [
          {
            "ReferencedFrameNumber": 3,
            "ReferencedSOPClassUID": "1.2.840.10008.5.1.4.1.1.4.1",
            "ReferencedSOPInstanceUID": "1.3.12.2.1107.5.2.43.67014.2023100518024855688911284"
          }
        ],
        [
          {
            "ReferencedFrameNumber": 4,
            "ReferencedSOPClassUID": "1.2.840.10008.5.1.4.1.1.4.1",
            "ReferencedSOPInstanceUID": "1.3.12.2.1107.5.2.43.67014.2023100518024855688911284"
          }
        ],
        [
          {
            "ReferencedFrameNumber": 5,
            "ReferencedSOPClassUID": "1.2.840.10008.5.1.4.1.1.4.1",
            "ReferencedSOPInstanceUID": "1.3.12.2.1107.5.2.43.67014.2023100518024855688911284"
          }
        ],
        [
          {
            "ReferencedFrameNumber": 6,
            "ReferencedSOPClassUID": "1.2.840.10008.5.1.4.1.1.4.1",
            "ReferencedSOPInstanceUID": "1.3.12.2.1107.5.2.43.67014.2023100518024855688911284"
          }
        ],
        [
          {
            "ReferencedFrameNumber": 7,
            "ReferencedSOPClassUID": "1.2.840.10008.5.1.4.1.1.4.1",
            "ReferencedSOPInstanceUID": "1.3.12.2.1107.5.2.43.67014.2023100518024855688911284"
          }
        ],
        [
          {
            "ReferencedFrameNumber": 8,
            "ReferencedSOPClassUID": "1.2.840.10008.5.1.4.1.1.4.1",
            "ReferencedSOPInstanceUID": "1.3.12.2.1107.5.2.43.67014.2023100518024855688911284"
          }
        ],
        [
          {
            "ReferencedFrameNumber": 9,
            "ReferencedSOPClassUID": "1.2.840.10008.5.1.4.1.1.4.1",
            "ReferencedSOPInstanceUID": "1.3.12.2.1107.5.2.43.67014.2023100518024855688911284"
          }
        ],
        [
          {
            "ReferencedFrameNumber": 10,
            "ReferencedSOPClassUID": "1.2.840.10008.5.1.4.1.1.4.1",
            "ReferencedSOPInstanceUID": "1.3.12.2.1107.5.2.43.67014.2023100518024855688911284"
          }
        ],
        [
          {
            "ReferencedFrameNumber": 11,
            "ReferencedSOPClassUID": "1.2.840.10008.5.1.4.1.1.4.1",
            "ReferencedSOPInstanceUID": "1.3.12.2.1107.5.2.43.67014.2023100518024855688911284"
          }
        ],
        [
          {
            "ReferencedFrameNumber": 12,
            "ReferencedSOPClassUID": "1.2.840.10008.5.1.4.1.1.4.1",
            "ReferencedSOPInstanceUID": "1.3.12.2.1107.5.2.43.67014.2023100518024855688911284"
          }
        ],
        [
          {
            "ReferencedFrameNumber": 13,
            "ReferencedSOPClassUID": "1.2.840.10008.5.1.4.1.1.4.1",
            "ReferencedSOPInstanceUID": "1.3.12.2.1107.5.2.43.67014.2023100518024855688911284"
          }
        ],
        [
          {
            "ReferencedFrameNumber": 14,
            "ReferencedSOPClassUID": "1.2.840.10008.5.1.4.1.1.4.1",
            "ReferencedSOPInstanceUID": "1.3.12.2.1107.5.2.43.67014.2023100518024855688911284"
          }
        ],
        [
          {
            "ReferencedFrameNumber": 15,
            "ReferencedSOPClassUID": "1.2.840.10008.5.1.4.1.1.4.1",
            "ReferencedSOPInstanceUID": "1.3.12.2.1107.5.2.43.67014.2023100518024855688911284"
          }
        ],
        [
          {
            "ReferencedFrameNumber": 16,
            "ReferencedSOPClassUID": "1.2.840.10008.5.1.4.1.1.4.1",
            "ReferencedSOPInstanceUID": "1.3.12.2.1107.5.2.43.67014.2023100518024855688911284"
          }
        ],
        [
          {
            "ReferencedFrameNumber": 17,
            "ReferencedSOPClassUID": "1.2.840.10008.5.1.4.1.1.4.1",
            "ReferencedSOPInstanceUID": "1.3.12.2.1107.5.2.43.67014.2023100518024855688911284"
          }
        ],
        [
          {
            "ReferencedFrameNumber": 18,
            "ReferencedSOPClassUID": "1.2.840.10008.5.1.4.1.1.4.1",
            "ReferencedSOPInstanceUID": "1.3.12.2.1107.5.2.43.67014.2023100518024855688911284"
          }
        ],
        [
          {
            "ReferencedFrameNumber": 19,
            "ReferencedSOPClassUID": "1.2.840.10008.5.1.4.1.1.4.1",
            "ReferencedSOPInstanceUID": "1.3.12.2.1107.5.2.43.67014.2023100518024855688911284"
          }
        ],
        [
          {
            "ReferencedFrameNumber": 20,
            "ReferencedSOPClassUID": "1.2.840.10008.5.1.4.1.1.4.1",
            "ReferencedSOPInstanceUID": "1.3.12.2.1107.5.2.43.67014.2023100518024855688911284"
          }
        ],
        [
          {
            "ReferencedFrameNumber": 21,
            "ReferencedSOPClassUID": "1.2.840.10008.5.1.4.1.1.4.1",
            "ReferencedSOPInstanceUID": "1.3.12.2.1107.5.2.43.67014.2023100518024855688911284"
          }
        ],
        [
          {
            "ReferencedFrameNumber": 22,
            "ReferencedSOPClassUID": "1.2.840.10008.5.1.4.1.1.4.1",
            "ReferencedSOPInstanceUID": "1.3.12.2.1107.5.2.43.67014.2023100518024855688911284"
          }
        ],
        [
          {
            "ReferencedFrameNumber": 23,
            "ReferencedSOPClassUID": "1.2.840.10008.5.1.4.1.1.4.1",
            "ReferencedSOPInstanceUID": "1.3.12.2.1107.5.2.43.67014.2023100518024855688911284"
          }
        ],
        [
          {
            "ReferencedFrameNumber": 24,
            "ReferencedSOPClassUID": "1.2.840.10008.5.1.4.1.1.4.1",
            "ReferencedSOPInstanceUID": "1.3.12.2.1107.5.2.43.67014.2023100518024855688911284"
          }
        ],
        [
          {
            "ReferencedFrameNumber": 25,
            "ReferencedSOPClassUID": "1.2.840.10008.5.1.4.1.1.4.1",
            "ReferencedSOPInstanceUID": "1.3.12.2.1107.5.2.43.67014.2023100518024855688911284"
          }
        ],
        [
          {
            "ReferencedFrameNumber": 26,
            "ReferencedSOPClassUID": "1.2.840.10008.5.1.4.1.1.4.1",
            "ReferencedSOPInstanceUID": "1.3.12.2.1107.5.2.43.67014.2023100518024855688911284"
          }
        ],
        [
          {
            "ReferencedFrameNumber": 27,
            "ReferencedSOPClassUID": "1.2.840.10008.5.1.4.1.1.4.1",
            "ReferencedSOPInstanceUID": "1.3.12.2.1107.5.2.43.67014.2023100518024855688911284"
          }
        ],
        [
          {
            "ReferencedFrameNumber": 28,
            "ReferencedSOPClassUID": "1.2.840.10008.5.1.4.1.1.4.1",
            "ReferencedSOPInstanceUID": "1.3.12.2.1107.5.2.43.67014.2023100518024855688911284"
          }
        ],
        [
          {
            "ReferencedFrameNumber": 29,
            "ReferencedSOPClassUID": "1.2.840.10008.5.1.4.1.1.4.1",
            "ReferencedSOPInstanceUID": "1.3.12.2.1107.5.2.43.67014.2023100518024855688911284"
          }
        ],
        [
          {
            "ReferencedFrameNumber": 30,
            "ReferencedSOPClassUID": "1.2.840.10008.5.1.4.1.1.4.1",
            "ReferencedSOPInstanceUID": "1.3.12.2.1107.5.2.43.67014.2023100518024855688911284"
          }
        ],
        [
          {
            "ReferencedFrameNumber": 31,
            "ReferencedSOPClassUID": "1.2.840.10008.5.1.4.1.1.4.1",
            "ReferencedSOPInstanceUID": "1.3.12.2.1107.5.2.43.67014.2023100518024855688911284"
          }
        ],
        [
          {
            "ReferencedFrameNumber": 32,
            "ReferencedSOPClassUID": "1.2.840.10008.5.1.4.1.1.4.1",
            "ReferencedSOPInstanceUID": "1.3.12.2.1107.5.2.43.67014.2023100518024855688911284"
          }
        ],
        [
          {
            "ReferencedFrameNumber": 33,
            "ReferencedSOPClassUID": "1.2.840.10008.5.1.4.1.1.4.1",
            "ReferencedSOPInstanceUID": "1.3.12.2.1107.5.2.43.67014.2023100518024855688911284"
          }
        ],
        [
          {
            "ReferencedFrameNumber": 34,
            "ReferencedSOPClassUID": "1.2.840.10008.5.1.4.1.1.4.1",
            "ReferencedSOPInstanceUID": "1.3.12.2.1107.5.2.43.67014.2023100518024855688911284"
          }
        ],
        [
          {
            "ReferencedFrameNumber": 35,
            "ReferencedSOPClassUID": "1.2.840.10008.5.1.4.1.1.4.1",
            "ReferencedSOPInstanceUID": "1.3.12.2.1107.5.2.43.67014.2023100518024855688911284"
          }
        ],
        [
          {
            "ReferencedFrameNumber": 36,
            "ReferencedSOPClassUID": "1.2.840.10008.5.1.4.1.1.4.1",
            "ReferencedSOPInstanceUID": "1.3.12.2.1107.5.2.43.67014.2023100518024855688911284"
          }
        ],
        [
          {
            "ReferencedFrameNumber": 37,
            "ReferencedSOPClassUID": "1.2.840.10008.5.1.4.1.1.4.1",
            "ReferencedSOPInstanceUID": "1.3.12.2.1107.5.2.43.67014.2023100518024855688911284"
          }
        ],
        [
          {
            "ReferencedFrameNumber": 38,
            "ReferencedSOPClassUID": "1.2.840.10008.5.1.4.1.1.4.1",
            "ReferencedSOPInstanceUID": "1.3.12.2.1107.5.2.43.67014.2023100518024855688911284"
          }
        ],
        [
          {
            "ReferencedFrameNumber": 39,
            "ReferencedSOPClassUID": "1.2.840.10008.5.1.4.1.1.4.1",
            "ReferencedSOPInstanceUID": "1.3.12.2.1107.5.2.43.67014.2023100518024855688911284"
          }
        ],
        [
          {
            "ReferencedFrameNumber": 40,
            "ReferencedSOPClassUID": "1.2.840.10008.5.1.4.1.1.4.1",
            "ReferencedSOPInstanceUID": "1.3.12.2.1107.5.2.43.67014.2023100518024855688911284"
          }
        ],
        [
          {
            "ReferencedFrameNumber": 41,
            "ReferencedSOPClassUID": "1.2.840.10008.5.1.4.1.1.4.1",
            "ReferencedSOPInstanceUID": "1.3.12.2.1107.5.2.43.67014.2023100518024855688911284"
          }
        ],
        [
          {
            "ReferencedFrameNumber": 42,
            "ReferencedSOPClassUID": "1.2.840.10008.5.1.4.1.1.4.1",
            "ReferencedSOPInstanceUID": "1.3.12.2.1107.5.2.43.67014.2023100518024855688911284"
          }
        ],
        [
          {
            "ReferencedFrameNumber": 43,
            "ReferencedSOPClassUID": "1.2.840.10008.5.1.4.1.1.4.1",
            "ReferencedSOPInstanceUID": "1.3.12.2.1107.5.2.43.67014.2023100518024855688911284"
          }
        ],
        [
          {
            "ReferencedFrameNumber": 44,
            "ReferencedSOPClassUID": "1.2.840.10008.5.1.4.1.1.4.1",
            "ReferencedSOPInstanceUID": "1.3.12.2.1107.5.2.43.67014.2023100518024855688911284"
          }
        ],
        [
          {
            "ReferencedFrameNumber": 45,
            "ReferencedSOPClassUID": "1.2.840.10008.5.1.4.1.1.4.1",
            "ReferencedSOPInstanceUID": "1.3.12.2.1107.5.2.43.67014.2023100518024855688911284"
          }
        ],
        [
          {
            "ReferencedFrameNumber": 46,
            "ReferencedSOPClassUID": "1.2.840.10008.5.1.4.1.1.4.1",
            "ReferencedSOPInstanceUID": "1.3.12.2.1107.5.2.43.67014.2023100518024855688911284"
          }
        ],
        [
          {
            "ReferencedFrameNumber": 47,
            "ReferencedSOPClassUID": "1.2.840.10008.5.1.4.1.1.4.1",
            "ReferencedSOPInstanceUID": "1.3.12.2.1107.5.2.43.67014.2023100518024855688911284"
          }
        ],
        [
          {
            "ReferencedFrameNumber": 48,
            "ReferencedSOPClassUID": "1.2.840.10008.5.1.4.1.1.4.1",
            "ReferencedSOPInstanceUID": "1.3.12.2.1107.5.2.43.67014.2023100518024855688911284"
          }
        ],
        [
          {
            "ReferencedFrameNumber": 49,
            "ReferencedSOPClassUID": "1.2.840.10008.5.1.4.1.1.4.1",
            "ReferencedSOPInstanceUID": "1.3.12.2.1107.5.2.43.67014.2023100518024855688911284"
          }
        ],
        [
          {
            "ReferencedFrameNumber": 50,
            "ReferencedSOPClassUID": "1.2.840.10008.5.1.4.1.1.4.1",
            "ReferencedSOPInstanceUID": "1.3.12.2.1107.5.2.43.67014.2023100518024855688911284"
          }
        ],
        [
          {
            "ReferencedFrameNumber": 51,
            "ReferencedSOPClassUID": "1.2.840.10008.5.1.4.1.1.4.1",
            "ReferencedSOPInstanceUID": "1.3.12.2.1107.5.2.43.67014.2023100518024855688911284"
          }
        ],
        [
          {
            "ReferencedFrameNumber": 52,
            "ReferencedSOPClassUID": "1.2.840.10008.5.1.4.1.1.4.1",
            "ReferencedSOPInstanceUID": "1.3.12.2.1107.5.2.43.67014.2023100518024855688911284"
          }
        ],
        [
          {
            "ReferencedFrameNumber": 53,
            "ReferencedSOPClassUID": "1.2.840.10008.5.1.4.1.1.4.1",
            "ReferencedSOPInstanceUID": "1.3.12.2.1107.5.2.43.67014.2023100518024855688911284"
          }
        ],
        [
          {
            "ReferencedFrameNumber": 54,
            "ReferencedSOPClassUID": "1.2.840.10008.5.1.4.1.1.4.1",
            "ReferencedSOPInstanceUID": "1.3.12.2.1107.5.2.43.67014.2023100518024855688911284"
          }
        ],
        [
          {
            "ReferencedFrameNumber": 55,
            "ReferencedSOPClassUID": "1.2.840.10008.5.1.4.1.1.4.1",
            "ReferencedSOPInstanceUID": "1.3.12.2.1107.5.2.43.67014.2023100518024855688911284"
          }
        ],
        [
          {
            "ReferencedFrameNumber": 56,
            "ReferencedSOPClassUID": "1.2.840.10008.5.1.4.1.1.4.1",
            "ReferencedSOPInstanceUID": "1.3.12.2.1107.5.2.43.67014.2023100518024855688911284"
          }
        ],
        [
          {
            "ReferencedFrameNumber": 57,
            "ReferencedSOPClassUID": "1.2.840.10008.5.1.4.1.1.4.1",
            "ReferencedSOPInstanceUID": "1.3.12.2.1107.5.2.43.67014.2023100518024855688911284"
          }
        ],
        [
          {
            "ReferencedFrameNumber": 58,
            "ReferencedSOPClassUID": "1.2.840.10008.5.1.4.1.1.4.1",
            "ReferencedSOPInstanceUID": "1.3.12.2.1107.5.2.43.67014.2023100518024855688911284"
          }
        ],
        [
          {
            "ReferencedFrameNumber": 59,
            "ReferencedSOPClassUID": "1.2.840.10008.5.1.4.1.1.4.1",
            "ReferencedSOPInstanceUID": "1.3.12.2.1107.5.2.43.67014.2023100518024855688911284"
          }
        ],
        [
          {
            "ReferencedFrameNumber": 60,
            "ReferencedSOPClassUID": "1.2.840.10008.5.1.4.1.1.4.1",
            "ReferencedSOPInstanceUID": "1.3.12.2.1107.5.2.43.67014.2023100518024855688911284"
          }
        ],
        [
          {
            "ReferencedFrameNumber": 61,
            "ReferencedSOPClassUID": "1.2.840.10008.5.1.4.1.1.4.1",
            "ReferencedSOPInstanceUID": "1.3.12.2.1107.5.2.43.67014.2023100518024855688911284"
          }
        ],
        [
          {
            "ReferencedFrameNumber": 62,
            "ReferencedSOPClassUID": "1.2.840.10008.5.1.4.1.1.4.1",
            "ReferencedSOPInstanceUID": "1.3.12.2.1107.5.2.43.67014.2023100518024855688911284"
          }
        ],
        [
          {
            "ReferencedFrameNumber": 63,
            "ReferencedSOPClassUID": "1.2.840.10008.5.1.4.1.1.4.1",
            "ReferencedSOPInstanceUID": "1.3.12.2.1107.5.2.43.67014.2023100518024855688911284"
          }
        ],
        [
          {
            "ReferencedFrameNumber": 64,
            "ReferencedSOPClassUID": "1.2.840.10008.5.1.4.1.1.4.1",
            "ReferencedSOPInstanceUID": "1.3.12.2.1107.5.2.43.67014.2023100518024855688911284"
          }
        ],
        [
          {
            "ReferencedFrameNumber": 65,
            "ReferencedSOPClassUID": "1.2.840.10008.5.1.4.1.1.4.1",
            "ReferencedSOPInstanceUID": "1.3.12.2.1107.5.2.43.67014.2023100518024855688911284"
          }
        ],
        [
          {
            "ReferencedFrameNumber": 66,
            "ReferencedSOPClassUID": "1.2.840.10008.5.1.4.1.1.4.1",
            "ReferencedSOPInstanceUID": "1.3.12.2.1107.5.2.43.67014.2023100518024855688911284"
          }
        ],
        [
          {
            "ReferencedFrameNumber": 67,
            "ReferencedSOPClassUID": "1.2.840.10008.5.1.4.1.1.4.1",
            "ReferencedSOPInstanceUID": "1.3.12.2.1107.5.2.43.67014.2023100518024855688911284"
          }
        ],
        [
          {
            "ReferencedFrameNumber": 68,
            "ReferencedSOPClassUID": "1.2.840.10008.5.1.4.1.1.4.1",
            "ReferencedSOPInstanceUID": "1.3.12.2.1107.5.2.43.67014.2023100518024855688911284"
          }
        ],
        [
          {
            "ReferencedFrameNumber": 69,
            "ReferencedSOPClassUID": "1.2.840.10008.5.1.4.1.1.4.1",
            "ReferencedSOPInstanceUID": "1.3.12.2.1107.5.2.43.67014.2023100518024855688911284"
          }
        ],
        [
          {
            "ReferencedFrameNumber": 70,
            "ReferencedSOPClassUID": "1.2.840.10008.5.1.4.1.1.4.1",
            "ReferencedSOPInstanceUID": "1.3.12.2.1107.5.2.43.67014.2023100518024855688911284"
          }
        ],
        [
          {
            "ReferencedFrameNumber": 71,
            "ReferencedSOPClassUID": "1.2.840.10008.5.1.4.1.1.4.1",
            "ReferencedSOPInstanceUID": "1.3.12.2.1107.5.2.43.67014.2023100518024855688911284"
          }
        ],
        [
          {
            "ReferencedFrameNumber": 72,
            "ReferencedSOPClassUID": "1.2.840.10008.5.1.4.1.1.4.1",
            "ReferencedSOPInstanceUID": "1.3.12.2.1107.5.2.43.67014.2023100518024855688911284"
          }
        ],
        [
          {
            "ReferencedFrameNumber": 73,
            "ReferencedSOPClassUID": "1.2.840.10008.5.1.4.1.1.4.1",
            "ReferencedSOPInstanceUID": "1.3.12.2.1107.5.2.43.67014.2023100518024855688911284"
          }
        ],
        [
          {
            "ReferencedFrameNumber": 74,
            "ReferencedSOPClassUID": "1.2.840.10008.5.1.4.1.1.4.1",
            "ReferencedSOPInstanceUID": "1.3.12.2.1107.5.2.43.67014.2023100518024855688911284"
          }
        ],
        [
          {
            "ReferencedFrameNumber": 75,
            "ReferencedSOPClassUID": "1.2.840.10008.5.1.4.1.1.4.1",
            "ReferencedSOPInstanceUID": "1.3.12.2.1107.5.2.43.67014.2023100518024855688911284"
          }
        ],
        [
          {
            "ReferencedFrameNumber": 76,
            "ReferencedSOPClassUID": "1.2.840.10008.5.1.4.1.1.4.1",
            "ReferencedSOPInstanceUID": "1.3.12.2.1107.5.2.43.67014.2023100518024855688911284"
          }
        ],
        [
          {
            "ReferencedFrameNumber": 77,
            "ReferencedSOPClassUID": "1.2.840.10008.5.1.4.1.1.4.1",
            "ReferencedSOPInstanceUID": "1.3.12.2.1107.5.2.43.67014.2023100518024855688911284"
          }
        ],
        [
          {
            "ReferencedFrameNumber": 78,
            "ReferencedSOPClassUID": "1.2.840.10008.5.1.4.1.1.4.1",
            "ReferencedSOPInstanceUID": "1.3.12.2.1107.5.2.43.67014.2023100518024855688911284"
          }
        ],
        [
          {
            "ReferencedFrameNumber": 79,
            "ReferencedSOPClassUID": "1.2.840.10008.5.1.4.1.1.4.1",
            "ReferencedSOPInstanceUID": "1.3.12.2.1107.5.2.43.67014.2023100518024855688911284"
          }
        ],
        [
          {
            "ReferencedFrameNumber": 80,
            "ReferencedSOPClassUID": "1.2.840.10008.5.1.4.1.1.4.1",
            "ReferencedSOPInstanceUID": "1.3.12.2.1107.5.2.43.67014.2023100518024855688911284"
          }
        ],
        [
          {
            "ReferencedFrameNumber": 81,
            "ReferencedSOPClassUID": "1.2.840.10008.5.1.4.1.1.4.1",
