{
  "AcquisitionMatrixPE": 146,
  "AcquisitionTime": "18:01:58.252500",
  "B0FieldIdentifier": "pilot020pepolarb0",
  "BandwidthPerPixelPhaseEncode": 19.569,
  "BaseResolution": 146,
  "DerivedVendorReportedEchoSpacing": 0.000700017,
  "DwellTime": 2.1e-06,
  "EchoTime": 0.09,
  "EchoTrainLength": 64,
  "EffectiveEchoSpacing": 0.000350008,
  "ImageOrientationPatientDICOM": [
    0.999724,
    0.0231107,
    -0.00422892,
    -0.0232106,
    0.943621,
    -0.330212
  ],
  "InPlanePhaseEncodingDirectionDICOM": "COL",
  "PercentPhaseFOV": 100,
  "PhaseEncodingDirection": "j-",
  "PhaseEncodingSteps": 146,
  "PixelBandwidth": 1631,
  "ProcedureStepDescription": "RESEARCH Oscar",
  "ProtocolName": "fmap-epi_acq-b0_dir-AP__6dir_monopolar",
  "ReceiveCoilActiveElements": "HC1-7",
  "ReconMatrixPE": 146,
  "RefLinesPE": 54,
  "RepetitionTime": 3.9,
  "SAR": 0.19265,
  "SeriesDescription": "fmap-epi_acq-b0_dir-AP__6dir_monopolar",
  "SeriesNumber": 9,
  "ShimSetting": [
    8229,
    -5617,
    -6015,
    666,
    -71,
    -277,
    3,
    1
  ],
  "SliceThickness": 1.6,
  "SliceTiming": [
    0, 5.7925, 0.13, 5.9225, 0.2625, 6.055, 0.395, 6.1875, 0.525, 6.3175, 0.6575, 6.45, 0.79, 6.5825,
    0.92, 6.7125, 1.0525, 6.845, 1.185, 6.9775, 1.315, 7.1075, 1.4475, 7.24, 1.58, 7.3725, 1.71, 7.5025,
    1.8425, 7.635, 1.975, 7.765, 2.105, 7.8975, 2.2375, 8.03, 2.37, 8.16, 2.5, 8.2925, 2.6325, 8.425,
    2.765, 8.555, 2.895, 8.6875, 3.0275, 8.82, 3.16, 8.95, 3.29, 9.0825, 3.4225, 9.215, 3.555, 9.345,
    3.685, 9.4775, 3.8175, 9.61, 3.9475, 9.74, 4.08, 9.8725, 4.2125, 10.005, 4.3425, 10.135, 4.475,
    10.2675, 4.6075, 10.4, 4.7375, 10.53, 4.87, 10.6625, 5.0025, 10.795, 5.1325, 10.925, 5.265, 11.0575,
    5.3975, 11.19, 5.5275, 11.32, 5.66
  ],
  "SpacingBetweenSlices": 1.6,
  "TotalReadoutTime": 0.0507512,
  "TxRefAmp": 247.631,
  "VendorReportedEchoSpacing": 0.0007,
  "dcmmeta_affine": [
    [-1.6022976636886597, -0.037200555205345154, 0.006000000052154064, 119.72608184814453],
    [-0.03704044222831726, 1.5123791694641113, -0.527999997138977, -66.62596893310547],
    [-0.006777859292924404, 0.5292440056800842, 1.5099999904632568, -84.79537963867188],
    [0.0, 0.0, 0.0, 1.0]
  ],
  "dcmmeta_reorient_transform": [
    [0.0, -1.0, 0.0, 145.0],
    [1.0, 0.0, 0.0, 0.0],
    [0.0, 0.0, -1.0, 86.0],
    [0.0, 0.0, 0.0, 1.0]
  ],
  "dcmmeta_shape": [146, 146, 87, 3],
  "global": {
    "const": {
      "AcquisitionMatrix": [146, 0, 0, 146],
      "AngioFlag": "N",
      "BeatRejectionFlag": "N",
      "BitsAllocated": 16,
      "BitsStored": 12,
      "BodyPartExamined": "BRAIN",
      "BurnedInAnnotation": "NO",
      "CardiacNumberOfImages": 1,
      "Columns": 146,
      "ConfidentialityCode": "N",
      "ContentQualification": "PRODUCT",
      "EchoTime": 90.0,
      "EchoTrainLength": 64,
      "FlipAngle": 90.0,
      "HighBit": 11,
      "ImageOrientationPatient": [
        0.999724,
        0.0231107,
        -0.00422892,
        -0.0232106,
        0.943621,
        -0.330212
      ],
      "ImageType": [
        "ORIGINAL",
        "PRIMARY",
        "DIFFUSION",
        "NONE",
        "ND",
        "MFSPLIT"
      ],
      "ImagedNucleus": "1H",
      "ImagingFrequency": 123.248101,
      "InPlanePhaseEncodingDirection": "COL",
      "LossyImageCompression": "00",
      "MRAcquisitionType": "2D",
      "MagneticFieldStrength": 3.0,
      "Manufacturer": "Siemens Healthineers",
      "ManufacturerModelName": "MAGNETOM Prisma Fit",
      "ModalitiesInStudy": ["MR", "SR"],
      "Modality": "MR",
      "NumberOfAverages": 1.0,
      "NumberOfPhaseEncodingSteps": 146,
      "NumberOfStudyRelatedInstances": 32133,
      "NumberOfTemporalPositions": 3,
      "PercentPhaseFieldOfView": 100.0,
      "PercentSampling": 100.0,
      "PerformedProcedureStepStartTime": "171829.900000",
      "PhotometricInterpretation": "MONOCHROME2",
      "PixelBandwidth": 1631.0,
      "PixelRepresentation": 0,
      "PixelSpacing": [1.60274, 1.60274],
      "PresentationLUTShape": "IDENTITY",
      "ProtocolName": "fmap-epi_acq-b0_dir-AP__6dir_monopolar",
      "ReceiveCoilName": "HeadNeck_64",
      "RepetitionTime": 3900.0,
      "RescaleIntercept": 0.0,
      "RescaleSlope": 1.0,
      "Rows": 146,
      "SAR": 0.19264982005839,
      "SamplesPerPixel": 1,
      "ScanOptions": ["PFP", "FS", "PER"],
      "ScanningSequence": ["GR", "EP"],
      "SequenceName": "*ep_b0",
      "SequenceVariant": "SK",
      "SeriesDescription": "fmap-epi_acq-b0_dir-AP__6dir_monopolar",
      "SeriesNumber": 9,
      "SeriesTime": "180202",
      "SliceThickness": 1.6,
      "SmallestImagePixelValue": 0,
      "SoftwareVersions": "syngo MR XA30",
      "SpacingBetweenSlices": 1.6,
      "SpecificCharacterSet": "ISO_IR 100",
      "StudyID": "7f552491-f0ae-4c",
      "StudyTime": "171829",
      "TransmitCoilName": "Body"
    },
    "slices": {
      "AcquisitionTime": [
        "180158.252500", "180200.260000", "180158.385000", "180200.392500", "180158.520000",
        "180200.527500", "180158.655000", "180200.660000", "180158.787500", "180200.795000",
        "180158.922500", "180200.927500", "180159.055000", "180201.062500", "180159.190000",
        "180201.195000", "180159.322500", "180201.330000", "180159.457500", "180201.462500",
        "180159.590000", "180201.597500", "180159.725000", "180201.730000", "180159.857500",
        "180201.865000", "180159.992500", "180201.997500", "180200.125000", "180158.252500",
        "180200.260000", "180158.385000", "180200.392500", "180158.520000", "180200.527500",
        "180158.655000", "180200.660000", "180158.787500", "180200.795000", "180158.922500",
        "180200.927500", "180159.055000", "180201.062500", "180159.190000", "180201.195000",
        "180159.322500", "180201.330000", "180159.457500", "180201.462500", "180159.590000",
        "180201.597500", "180159.725000", "180201.730000", "180159.857500", "180201.865000",
        "180159.992500", "180201.997500", "180200.125000", "180158.252500", "180200.260000",
        "180158.385000", "180200.392500", "180158.520000", "180200.527500", "180158.655000",
        "180200.660000", "180158.787500", "180200.795000", "180158.922500", "180200.927500",
        "180159.055000", "180201.062500", "180159.190000", "180201.195000", "180159.322500",
        "180201.330000", "180159.457500", "180201.462500", "180159.590000", "180201.597500",
        "180159.725000", "180201.730000", "180159.857500", "180201.865000", "180159.992500",
        "180201.997500", "180200.125000", "180202.152500", "180204.160000", "180202.285000",
        "180204.292500", "180202.420000", "180204.427500", "180202.555000", "180204.560000",
        "180202.687500", "180204.695000", "180202.822500", "180204.827500", "180202.955000",
        "180204.962500", "180203.090000", "180205.095000", "180203.222500", "180205.230000",
        "180203.357500", "180205.362500", "180203.490000", "180205.497500", "180203.625000",
        "180205.630000", "180203.757500", "180205.765000", "180203.892500", "180205.897500",
        "180204.025000", "180202.152500", "180204.160000", "180202.285000", "180204.292500",
        "180202.420000", "180204.427500", "180202.555000", "180204.560000", "180202.687500",
        "180204.695000", "180202.822500", "180204.827500", "180202.955000", "180204.962500",
        "180203.090000", "180205.095000", "180203.222500", "180205.230000", "180203.357500",
        "180205.362500", "180203.490000", "180205.497500", "180203.625000", "180205.630000",
        "180203.757500", "180205.765000", "180203.892500", "180205.897500", "180204.025000",
        "180202.152500", "180204.160000", "180202.285000", "180204.292500", "180202.420000",
        "180204.427500", "180202.555000", "180204.560000", "180202.687500", "180204.695000",
        "180202.822500", "180204.827500", "180202.955000", "180204.962500", "180203.090000",
        "180205.095000", "180203.222500", "180205.230000", "180203.357500", "180205.362500",
        "180203.490000", "180205.497500", "180203.625000", "180205.630000", "180203.757500",
        "180205.765000", "180203.892500", "180205.897500", "180204.025000", "180206.052500",
        "180208.060000", "180206.185000", "180208.192500", "180206.320000", "180208.327500",
        "180206.455000", "180208.460000", "180206.587500", "180208.595000", "180206.722500",
        "180208.727500", "180206.855000", "180208.862500", "180206.990000", "180208.995000",
        "180207.122500", "180209.130000", "180207.257500", "180209.262500", "180207.390000",
        "180209.397500", "180207.525000", "180209.530000", "180207.657500", "180209.665000",
        "180207.792500", "180209.797500", "180207.925000", "180206.052500", "180208.060000",
        "180206.185000", "180208.192500", "180206.320000", "180208.327500", "180206.455000",
        "180208.460000", "180206.587500", "180208.595000", "180206.722500", "180208.727500",
        "180206.855000", "180208.862500", "180206.990000", "180208.995000", "180207.122500",
        "180209.130000", "180207.257500", "180209.262500", "180207.390000", "180209.397500",
        "180207.525000", "180209.530000", "180207.657500", "180209.665000", "180207.792500",
        "180209.797500", "180207.925000", "180206.052500", "180208.060000", "180206.185000",
        "180208.192500", "180206.320000", "180208.327500", "180206.455000", "180208.460000",
        "180206.587500", "180208.595000", "180206.722500", "180208.727500", "180206.855000",
        "180208.862500", "180206.990000", "180208.995000", "180207.122500", "180209.130000",
        "180207.257500", "180209.262500", "180207.390000", "180209.397500", "180207.525000",
        "180209.530000", "180207.657500", "180209.665000", "180207.792500", "180209.797500",
        "180207.925000"
      ],
      "ConversionSourceAttributesSequence": [
        [
          {
            "ReferencedFrameNumber": 1,
            "ReferencedSOPClassUID": "1.2.840.10008.5.1.4.1.1.4.1",
            "ReferencedSOPInstanceUID": "1.3.12.2.1107.5.2.43.67014.2023100518020333520210199"
          }
        ],
        [
          {
            "ReferencedFrameNumber": 2,
            "ReferencedSOPClassUID": "1.2.840.10008.5.1.4.1.1.4.1",
            "ReferencedSOPInstanceUID": "1.3.12.2.1107.5.2.43.67014.2023100518020333520210199"
          }
        ],
        [
          {
            "ReferencedFrameNumber": 3,
            "ReferencedSOPClassUID": "1.2.840.10008.5.1.4.1.1.4.1",
            "ReferencedSOPInstanceUID": "1.3.12.2.1107.5.2.43.67014.2023100518020333520210199"
          }
        ],
        [
          {
            "ReferencedFrameNumber": 4,
            "ReferencedSOPClassUID": "1.2.840.10008.5.1.4.1.1.4.1",
            "ReferencedSOPInstanceUID": "1.3.12.2.1107.5.2.43.67014.2023100518020333520210199"
          }
        ],
        [
          {
            "ReferencedFrameNumber": 5,
            "ReferencedSOPClassUID": "1.2.840.10008.5.1.4.1.1.4.1",
            "ReferencedSOPInstanceUID": "1.3.12.2.1107.5.2.43.67014.2023100518020333520210199"
          }
        ],
        [
          {
            "ReferencedFrameNumber": 6,
            "ReferencedSOPClassUID": "1.2.840.10008.5.1.4.1.1.4.1",
            "ReferencedSOPInstanceUID": "1.3.12.2.1107.5.2.43.67014.2023100518020333520210199"
          }
        ],
        [
          {
            "ReferencedFrameNumber": 7,
            "ReferencedSOPClassUID": "1.2.840.10008.5.1.4.1.1.4.1",
            "ReferencedSOPInstanceUID": "1.3.12.2.1107.5.2.43.67014.2023100518020333520210199"
          }
        ],
        [
          {
            "ReferencedFrameNumber": 8,
            "ReferencedSOPClassUID": "1.2.840.10008.5.1.4.1.1.4.1",
            "ReferencedSOPInstanceUID": "1.3.12.2.1107.5.2.43.67014.2023100518020333520210199"
          }
        ],
        [
          {
            "ReferencedFrameNumber": 9,
            "ReferencedSOPClassUID": "1.2.840.10008.5.1.4.1.1.4.1",
            "ReferencedSOPInstanceUID": "1.3.12.2.1107.5.2.43.67014.2023100518020333520210199"
          }
        ],
        [
          {
            "ReferencedFrameNumber": 10,
            "ReferencedSOPClassUID": "1.2.840.10008.5.1.4.1.1.4.1",
            "ReferencedSOPInstanceUID": "1.3.12.2.1107.5.2.43.67014.2023100518020333520210199"
          }
        ],
        [
          {
            "ReferencedFrameNumber": 11,
            "ReferencedSOPClassUID": "1.2.840.10008.5.1.4.1.1.4.1",
            "ReferencedSOPInstanceUID": "1.3.12.2.1107.5.2.43.67014.2023100518020333520210199"
          }
        ],
        [
          {
            "ReferencedFrameNumber": 12,
            "ReferencedSOPClassUID": "1.2.840.10008.5.1.4.1.1.4.1",
            "ReferencedSOPInstanceUID": "1.3.12.2.1107.5.2.43.67014.2023100518020333520210199"
          }
        ],
        [
          {
            "ReferencedFrameNumber": 13,
            "ReferencedSOPClassUID": "1.2.840.10008.5.1.4.1.1.4.1",
            "ReferencedSOPInstanceUID": "1.3.12.2.1107.5.2.43.67014.2023100518020333520210199"
          }
        ],
        [
          {
            "ReferencedFrameNumber": 14,
            "ReferencedSOPClassUID": "1.2.840.10008.5.1.4.1.1.4.1",
            "ReferencedSOPInstanceUID": "1.3.12.2.1107.5.2.43.67014.2023100518020333520210199"
          }
        ],
        [
          {
            "ReferencedFrameNumber": 15,
            "ReferencedSOPClassUID": "1.2.840.10008.5.1.4.1.1.4.1",
            "ReferencedSOPInstanceUID": "1.3.12.2.1107.5.2.43.67014.2023100518020333520210199"
          }
        ],
        [
          {
            "ReferencedFrameNumber": 16,
            "ReferencedSOPClassUID": "1.2.840.10008.5.1.4.1.1.4.1",
            "ReferencedSOPInstanceUID": "1.3.12.2.1107.5.2.43.67014.2023100518020333520210199"
          }
        ],
        [
          {
            "ReferencedFrameNumber": 17,
            "ReferencedSOPClassUID": "1.2.840.10008.5.1.4.1.1.4.1",
            "ReferencedSOPInstanceUID": "1.3.12.2.1107.5.2.43.67014.2023100518020333520210199"
          }
        ],
        [
          {
            "ReferencedFrameNumber": 18,
            "ReferencedSOPClassUID": "1.2.840.10008.5.1.4.1.1.4.1",
            "ReferencedSOPInstanceUID": "1.3.12.2.1107.5.2.43.67014.2023100518020333520210199"
          }
        ],
        [
          {
            "ReferencedFrameNumber": 19,
            "ReferencedSOPClassUID": "1.2.840.10008.5.1.4.1.1.4.1",
            "ReferencedSOPInstanceUID": "1.3.12.2.1107.5.2.43.67014.2023100518020333520210199"
          }
        ],
        [
          {
            "ReferencedFrameNumber": 20,
            "ReferencedSOPClassUID": "1.2.840.10008.5.1.4.1.1.4.1",
            "ReferencedSOPInstanceUID": "1.3.12.2.1107.5.2.43.67014.2023100518020333520210199"
          }
        ],
        [
          {
            "ReferencedFrameNumber": 21,
            "ReferencedSOPClassUID": "1.2.840.10008.5.1.4.1.1.4.1",
            "ReferencedSOPInstanceUID": "1.3.12.2.1107.5.2.43.67014.2023100518020333520210199"
          }
        ],
        [
          {
            "ReferencedFrameNumber": 22,
            "ReferencedSOPClassUID": "1.2.840.10008.5.1.4.1.1.4.1",
            "ReferencedSOPInstanceUID": "1.3.12.2.1107.5.2.43.67014.2023100518020333520210199"
          }
        ],
        [
          {
            "ReferencedFrameNumber": 23,
            "ReferencedSOPClassUID": "1.2.840.10008.5.1.4.1.1.4.1",
            "ReferencedSOPInstanceUID": "1.3.12.2.1107.5.2.43.67014.2023100518020333520210199"
          }
        ],
        [
          {
            "ReferencedFrameNumber": 24,
            "ReferencedSOPClassUID": "1.2.840.10008.5.1.4.1.1.4.1",
            "ReferencedSOPInstanceUID": "1.3.12.2.1107.5.2.43.67014.2023100518020333520210199"
          }
        ],
        [
          {
            "ReferencedFrameNumber": 25,
            "ReferencedSOPClassUID": "1.2.840.10008.5.1.4.1.1.4.1",
            "ReferencedSOPInstanceUID": "1.3.12.2.1107.5.2.43.67014.2023100518020333520210199"
          }
        ],
        [
          {
            "ReferencedFrameNumber": 26,
            "ReferencedSOPClassUID": "1.2.840.10008.5.1.4.1.1.4.1",
            "ReferencedSOPInstanceUID": "1.3.12.2.1107.5.2.43.67014.2023100518020333520210199"
          }
        ],
        [
          {
            "ReferencedFrameNumber": 27,
            "ReferencedSOPClassUID": "1.2.840.10008.5.1.4.1.1.4.1",
            "ReferencedSOPInstanceUID": "1.3.12.2.1107.5.2.43.67014.2023100518020333520210199"
          }
        ],
        [
          {
            "ReferencedFrameNumber": 28,
            "ReferencedSOPClassUID": "1.2.840.10008.5.1.4.1.1.4.1",
            "ReferencedSOPInstanceUID": "1.3.12.2.1107.5.2.43.67014.2023100518020333520210199"
          }
        ],
        [
          {
            "ReferencedFrameNumber": 29,
            "ReferencedSOPClassUID": "1.2.840.10008.5.1.4.1.1.4.1",
            "ReferencedSOPInstanceUID": "1.3.12.2.1107.5.2.43.67014.2023100518020333520210199"
          }
        ],
        [
          {
            "ReferencedFrameNumber": 30,
            "ReferencedSOPClassUID": "1.2.840.10008.5.1.4.1.1.4.1",
            "ReferencedSOPInstanceUID": "1.3.12.2.1107.5.2.43.67014.2023100518020333520210199"
          }
        ],
        [
          {
            "ReferencedFrameNumber": 31,
            "ReferencedSOPClassUID": "1.2.840.10008.5.1.4.1.1.4.1",
            "ReferencedSOPInstanceUID": "1.3.12.2.1107.5.2.43.67014.2023100518020333520210199"
          }
        ],
        [
          {
            "ReferencedFrameNumber": 32,
            "ReferencedSOPClassUID": "1.2.840.10008.5.1.4.1.1.4.1",
            "ReferencedSOPInstanceUID": "1.3.12.2.1107.5.2.43.67014.2023100518020333520210199"
          }
        ],
        [
          {
            "ReferencedFrameNumber": 33,
            "ReferencedSOPClassUID": "1.2.840.10008.5.1.4.1.1.4.1",
            "ReferencedSOPInstanceUID": "1.3.12.2.1107.5.2.43.67014.2023100518020333520210199"
          }
        ],
        [
          {
            "ReferencedFrameNumber": 34,
            "ReferencedSOPClassUID": "1.2.840.10008.5.1.4.1.1.4.1",
            "ReferencedSOPInstanceUID": "1.3.12.2.1107.5.2.43.67014.2023100518020333520210199"
          }
        ],
        [
          {
            "ReferencedFrameNumber": 35,
            "ReferencedSOPClassUID": "1.2.840.10008.5.1.4.1.1.4.1",
            "ReferencedSOPInstanceUID": "1.3.12.2.1107.5.2.43.67014.2023100518020333520210199"
          }
        ],
        [
          {
            "ReferencedFrameNumber": 36,
            "ReferencedSOPClassUID": "1.2.840.10008.5.1.4.1.1.4.1",
            "ReferencedSOPInstanceUID": "1.3.12.2.1107.5.2.43.67014.2023100518020333520210199"
          }
        ],
        [
          {
            "ReferencedFrameNumber": 37,
            "ReferencedSOPClassUID": "1.2.840.10008.5.1.4.1.1.4.1",
            "ReferencedSOPInstanceUID": "1.3.12.2.1107.5.2.43.67014.2023100518020333520210199"
          }
        ],
        [
          {
            "ReferencedFrameNumber": 38,
            "ReferencedSOPClassUID": "1.2.840.10008.5.1.4.1.1.4.1",
            "ReferencedSOPInstanceUID": "1.3.12.2.1107.5.2.43.67014.2023100518020333520210199"
          }
        ],
        [
          {
            "ReferencedFrameNumber": 39,
            "ReferencedSOPClassUID": "1.2.840.10008.5.1.4.1.1.4.1",
            "ReferencedSOPInstanceUID": "1.3.12.2.1107.5.2.43.67014.2023100518020333520210199"
          }
        ],
        [
          {
            "ReferencedFrameNumber": 40,
            "ReferencedSOPClassUID": "1.2.840.10008.5.1.4.1.1.4.1",
            "ReferencedSOPInstanceUID": "1.3.12.2.1107.5.2.43.67014.2023100518020333520210199"
          }
        ],
        [
          {
            "ReferencedFrameNumber": 41,
            "ReferencedSOPClassUID": "1.2.840.10008.5.1.4.1.1.4.1",
            "ReferencedSOPInstanceUID": "1.3.12.2.1107.5.2.43.67014.2023100518020333520210199"
          }
        ],
        [
          {
            "ReferencedFrameNumber": 42,
            "ReferencedSOPClassUID": "1.2.840.10008.5.1.4.1.1.4.1",
            "ReferencedSOPInstanceUID": "1.3.12.2.1107.5.2.43.67014.2023100518020333520210199"
          }
        ],
        [
          {
            "ReferencedFrameNumber": 43,
            "ReferencedSOPClassUID": "1.2.840.10008.5.1.4.1.1.4.1",
            "ReferencedSOPInstanceUID": "1.3.12.2.1107.5.2.43.67014.2023100518020333520210199"
          }
        ],
        [
          {
            "ReferencedFrameNumber": 44,
            "ReferencedSOPClassUID": "1.2.840.10008.5.1.4.1.1.4.1",
            "ReferencedSOPInstanceUID": "1.3.12.2.1107.5.2.43.67014.2023100518020333520210199"
          }
        ],
        [
          {
            "ReferencedFrameNumber": 45,
            "ReferencedSOPClassUID": "1.2.840.10008.5.1.4.1.1.4.1",
            "ReferencedSOPInstanceUID": "1.3.12.2.1107.5.2.43.67014.2023100518020333520210199"
          }
        ],
        [
          {
            "ReferencedFrameNumber": 46,
            "ReferencedSOPClassUID": "1.2.840.10008.5.1.4.1.1.4.1",
            "ReferencedSOPInstanceUID": "1.3.12.2.1107.5.2.43.67014.2023100518020333520210199"
          }
        ],
        [
          {
            "ReferencedFrameNumber": 47,
            "ReferencedSOPClassUID": "1.2.840.10008.5.1.4.1.1.4.1",
            "ReferencedSOPInstanceUID": "1.3.12.2.1107.5.2.43.67014.2023100518020333520210199"
          }
        ],
        [
          {
            "ReferencedFrameNumber": 48,
            "ReferencedSOPClassUID": "1.2.840.10008.5.1.4.1.1.4.1",
            "ReferencedSOPInstanceUID": "1.3.12.2.1107.5.2.43.67014.2023100518020333520210199"
          }
        ],
        [
          {
            "ReferencedFrameNumber": 49,
            "ReferencedSOPClassUID": "1.2.840.10008.5.1.4.1.1.4.1",
            "ReferencedSOPInstanceUID": "1.3.12.2.1107.5.2.43.67014.2023100518020333520210199"
          }
        ],
        [
          {
            "ReferencedFrameNumber": 50,
            "ReferencedSOPClassUID": "1.2.840.10008.5.1.4.1.1.4.1",
            "ReferencedSOPInstanceUID": "1.3.12.2.1107.5.2.43.67014.2023100518020333520210199"
          }
        ],
        [
          {
            "ReferencedFrameNumber": 51,
            "ReferencedSOPClassUID": "1.2.840.10008.5.1.4.1.1.4.1",
            "ReferencedSOPInstanceUID": "1.3.12.2.1107.5.2.43.67014.2023100518020333520210199"
          }
        ],
        [
          {
            "ReferencedFrameNumber": 52,
            "ReferencedSOPClassUID": "1.2.840.10008.5.1.4.1.1.4.1",
            "ReferencedSOPInstanceUID": "1.3.12.2.1107.5.2.43.67014.2023100518020333520210199"
          }
        ],
        [
          {
            "ReferencedFrameNumber": 53,
            "ReferencedSOPClassUID": "1.2.840.10008.5.1.4.1.1.4.1",
            "ReferencedSOPInstanceUID": "1.3.12.2.1107.5.2.43.67014.2023100518020333520210199"
          }
        ],
        [
          {
            "ReferencedFrameNumber": 54,
            "ReferencedSOPClassUID": "1.2.840.10008.5.1.4.1.1.4.1",
            "ReferencedSOPInstanceUID": "1.3.12.2.1107.5.2.43.67014.2023100518020333520210199"
          }
        ],
        [
          {
            "ReferencedFrameNumber": 55,
            "ReferencedSOPClassUID": "1.2.840.10008.5.1.4.1.1.4.1",
            "ReferencedSOPInstanceUID": "1.3.12.2.1107.5.2.43.67014.2023100518020333520210199"
          }
        ],
        [
          {
            "ReferencedFrameNumber": 56,
            "ReferencedSOPClassUID": "1.2.840.10008.5.1.4.1.1.4.1",
            "ReferencedSOPInstanceUID": "1.3.12.2.1107.5.2.43.67014.2023100518020333520210199"
          }
        ],
        [
          {
            "ReferencedFrameNumber": 57,
            "ReferencedSOPClassUID": "1.2.840.10008.5.1.4.1.1.4.1",
            "ReferencedSOPInstanceUID": "1.3.12.2.1107.5.2.43.67014.2023100518020333520210199"
          }
        ],
        [
          {
            "ReferencedFrameNumber": 58,
            "ReferencedSOPClassUID": "1.2.840.10008.5.1.4.1.1.4.1",
            "ReferencedSOPInstanceUID": "1.3.12.2.1107.5.2.43.67014.2023100518020333520210199"
          }
        ],
        [
          {
            "ReferencedFrameNumber": 59,
            "ReferencedSOPClassUID": "1.2.840.10008.5.1.4.1.1.4.1",
            "ReferencedSOPInstanceUID": "1.3.12.2.1107.5.2.43.67014.2023100518020333520210199"
          }
        ],
        [
          {
            "ReferencedFrameNumber": 60,
            "ReferencedSOPClassUID": "1.2.840.10008.5.1.4.1.1.4.1",
            "ReferencedSOPInstanceUID": "1.3.12.2.1107.5.2.43.67014.2023100518020333520210199"
          }
        ],
        [
          {
            "ReferencedFrameNumber": 61,
            "ReferencedSOPClassUID": "1.2.840.10008.5.1.4.1.1.4.1",
            "ReferencedSOPInstanceUID": "1.3.12.2.1107.5.2.43.67014.2023100518020333520210199"
          }
        ],
        [
          {
            "ReferencedFrameNumber": 62,
            "ReferencedSOPClassUID": "1.2.840.10008.5.1.4.1.1.4.1",
            "ReferencedSOPInstanceUID": "1.3.12.2.1107.5.2.43.67014.2023100518020333520210199"
          }
        ],
        [
          {
            "ReferencedFrameNumber": 63,
            "ReferencedSOPClassUID": "1.2.840.10008.5.1.4.1.1.4.1",
            "ReferencedSOPInstanceUID": "1.3.12.2.1107.5.2.43.67014.2023100518020333520210199"
          }
        ],
        [
          {
            "ReferencedFrameNumber": 64,
            "ReferencedSOPClassUID": "1.2.840.10008.5.1.4.1.1.4.1",
            "ReferencedSOPInstanceUID": "1.3.12.2.1107.5.2.43.67014.2023100518020333520210199"
          }
        ],
        [
          {
            "ReferencedFrameNumber": 65,
            "ReferencedSOPClassUID": "1.2.840.10008.5.1.4.1.1.4.1",
            "ReferencedSOPInstanceUID": "1.3.12.2.1107.5.2.43.67014.2023100518020333520210199"
          }
        ],
        [
          {
            "ReferencedFrameNumber": 66,
            "ReferencedSOPClassUID": "1.2.840.10008.5.1.4.1.1.4.1",
            "ReferencedSOPInstanceUID": "1.3.12.2.1107.5.2.43.67014.2023100518020333520210199"
          }
        ],
        [
          {
            "ReferencedFrameNumber": 67,
            "ReferencedSOPClassUID": "1.2.840.10008.5.1.4.1.1.4.1",
            "ReferencedSOPInstanceUID": "1.3.12.2.1107.5.2.43.67014.2023100518020333520210199"
          }
        ],
        [
          {
            "ReferencedFrameNumber": 68,
            "ReferencedSOPClassUID": "1.2.840.10008.5.1.4.1.1.4.1",
            "ReferencedSOPInstanceUID": "1.3.12.2.1107.5.2.43.67014.2023100518020333520210199"
          }
        ],
        [
          {
            "ReferencedFrameNumber": 69,
            "ReferencedSOPClassUID": "1.2.840.10008.5.1.4.1.1.4.1",
            "ReferencedSOPInstanceUID": "1.3.12.2.1107.5.2.43.67014.2023100518020333520210199"
          }
        ],
        [
          {
            "ReferencedFrameNumber": 70,
            "ReferencedSOPClassUID": "1.2.840.10008.5.1.4.1.1.4.1",
            "ReferencedSOPInstanceUID": "1.3.12.2.1107.5.2.43.67014.2023100518020333520210199"
          }
        ],
        [
          {
            "ReferencedFrameNumber": 71,
            "ReferencedSOPClassUID": "1.2.840.10008.5.1.4.1.1.4.1",
            "ReferencedSOPInstanceUID": "1.3.12.2.1107.5.2.43.67014.2023100518020333520210199"
          }
        ],
        [
          {
            "ReferencedFrameNumber": 72,
            "ReferencedSOPClassUID": "1.2.840.10008.5.1.4.1.1.4.1",
            "ReferencedSOPInstanceUID": "1.3.12.2.1107.5.2.43.67014.2023100518020333520210199"
          }
        ],
        [
          {
            "ReferencedFrameNumber": 73,
            "ReferencedSOPClassUID": "1.2.840.10008.5.1.4.1.1.4.1",
            "ReferencedSOPInstanceUID": "1.3.12.2.1107.5.2.43.67014.2023100518020333520210199"
          }
        ],
        [
          {
            "ReferencedFrameNumber": 74,
            "ReferencedSOPClassUID": "1.2.840.10008.5.1.4.1.1.4.1",
            "ReferencedSOPInstanceUID": "1.3.12.2.1107.5.2.43.67014.2023100518020333520210199"
          }
        ],
        [
          {
            "ReferencedFrameNumber": 75,
            "ReferencedSOPClassUID": "1.2.840.10008.5.1.4.1.1.4.1",
            "ReferencedSOPInstanceUID": "1.3.12.2.1107.5.2.43.67014.2023100518020333520210199"
          }
        ],
        [
          {
            "ReferencedFrameNumber": 76,
            "ReferencedSOPClassUID": "1.2.840.10008.5.1.4.1.1.4.1",
            "ReferencedSOPInstanceUID": "1.3.12.2.1107.5.2.43.67014.2023100518020333520210199"
          }
        ],
        [
          {
            "ReferencedFrameNumber": 77,
            "ReferencedSOPClassUID": "1.2.840.10008.5.1.4.1.1.4.1",
            "ReferencedSOPInstanceUID": "1.3.12.2.1107.5.2.43.67014.2023100518020333520210199"
          }
        ],
        [
          {
            "ReferencedFrameNumber": 78,
            "ReferencedSOPClassUID": "1.2.840.10008.5.1.4.1.1.4.1",
            "ReferencedSOPInstanceUID": "1.3.12.2.1107.5.2.43.67014.2023100518020333520210199"
          }
        ],
        [
          {
            "ReferencedFrameNumber": 79,
            "ReferencedSOPClassUID": "1.2.840.10008.5.1.4.1.1.4.1",
            "ReferencedSOPInstanceUID": "1.3.12.2.1107.5.2.43.67014.2023100518020333520210199"
          }
        ],
        [
          {
            "ReferencedFrameNumber": 80,
            "ReferencedSOPClassUID": "1.2.840.10008.5.1.4.1.1.4.1",
            "ReferencedSOPInstanceUID": "1.3.12.2.1107.5.2.43.67014.2023100518020333520210199"
          }
        ],
        [
          {
            "ReferencedFrameNumber": 81,
            "ReferencedSOPClassUID": "1.2.840.10008.5.1.4.1.1.4.1",
            "ReferencedSOPInstanceUID": "1.3.12.2.1107.5.2.43.67014.2023100518020333520210199"
          }
        ],
        [
